ECG
500
498
498
498
498
496
494
490
488
485
483
482
482
483
483
482
479
475
474
474
476
479
483
487
488
487
483
480
476
474
475
477
480
484
487
490
491
491
490
489
488
488
489
490
489
488
487
486
485
485
485
486
488
490
490
489
486
485
483
481
480
479
478
478
477
476
475
475
478
481
485
488
488
487
484
482
481
482
485
489
494
497
497
495
491
486
482
480
479
480
481
484
486
486
485
484
484
483
483
484
485
485
485
484
482
482
480
480
480
480
480
479
479
477
476
474
474
474
477
479
481
481
481
481
479
478
477
477
479
482
483
484
485
486
486
486
486
487
486
486
485
484
483
483
485
489
492
495
496
497
496
495
494
493
495
494
500
501
505
505
505
502
499
496
493
490
488
488
490
490
490
489
488
487
486
486
488
488
490
492
492
493
494
495
496
497
498
498
497
495
493
491
488
488
490
496
506
523
538
562
589
624
662
709
752
787
815
821
807
777
719
653
580
508
447
396
361
343
339
343
352
362
370
375
378
379
381
388
400
419
445
474
500
523
537
541
538
531
521
513
507
506
506
510
515
517
519
519
518
516
514
512
512
512
513
513
513
512
510
510
510
509
509
508
506
500
494
486
477
475
478
488
502
518
525
528
523
510
498
489
488
499
512
530
547
559
564
564
559
552
548
544
543
548
549
553
554
555
555
553
554
552
552
553
554
553
549
547
542
542
542
539
540
538
537
533
530
527
526
527
530
533
535
538
538
537
539
541
546
552
557
559
559
555
550
543
537
532
527
524
523
520
519
516
512
508
503
499
496
494
492
491
490
488
487
485
482
480
479
477
477
476
478
477
479
477
477
476
474
474
474
473
474
475
476
474
475
474
476
477
478
480
480
480
481
480
479
480
481
483
487
490
489
490
488
487
485
484
484
483
484
484
485
480
478
473
471
471
470
475
480
484
488
484
477
463
452
443
445
452
467
488
506
517
524
523
518
509
504
496
493
490
489
487
487
486
488
488
489
490
489
488
486
483
482
482
483
485
487
488
489
490
489
487
484
482
479
479
478
480
481
483
483
483
483
482
478
478
477
480
483
489
496
500
506
508
510
509
506
501
497
494
492
491
491
493
495
495
496
494
492
489
488
487
489
490
492
494
495
496
495
494
493
491
490
490
489
487
484
480
479
479
480
481
484
487
490
493
496
501
507
517
530
546
564
586
612
641
671
699
722
737
738
725
699
661
615
566
517
469
435
408
394
390
393
401
409
413
413
413
412
412
416
423
432
442
451
461
470
478
487
493
497
501
502
502
500
498
498
499
501
505
508
510
514
516
515
513
509
506
504
506
509
514
519
523
525
525
524
521
518
518
518
520
523
524
525
524
524
523
524
523
523
524
525
526
525
524
523
524
525
528
531
533
535
537
537
534
530
525
523
524
528
535
544
552
558
561
560
558
555
554
555
556
557
558
556
556
555
553
552
551
552
553
552
551
550
549
549
549
548
548
547
545
541
538
534
530
526
524
523
523
519
516
510
505
500
497
498
502
510
520
528
532
532
528
521
514
505
500
495
493
490
489
486
484
481
481
480
478
479
478
477
476
473
471
469
470
472
475
477
479
480
480
478
476
475
476
478
481
481
482
480
479
478
477
476
477
479
479
479
477
474
473
472
474
477
483
489
495
499
502
499
495
489
484
482
481
484
486
490
494
496
496
495
491
486
479
470
464
460
460
466
473
482
487
489
487
482
477
474
474
483
492
504
515
523
523
517
508
499
490
485
481
481
485
487
489
490
487
485
482
479
479
479
481
484
489
491
492
491
490
489
488
488
490
493
496
501
502
504
503
502
501
501
499
498
495
494
493
491
490
489
489
491
492
493
493
492
493
490
491
490
492
494
497
498
499
498
497
496
494
495
495
494
495
494
495
493
493
490
490
490
491
494
497
504
516
532
550
575
604
639
677
713
745
766
772
764
739
702
656
600
544
491
445
410
386
376
376
382
392
401
408
413
415
418
420
423
428
437
447
462
476
490
497
504
505
505
503
500
498
496
497
495
496
495
496
497
501
505
508
508
508
502
498
491
488
486
491
495
508
520
531
539
544
543
542
537
529
525
521
520
519
520
520
520
520
519
519
520
523
524
525
527
527
528
528
529
530
533
535
537
537
538
539
539
539
541
543
547
548
550
549
549
549
549
549
550
552
554
557
559
559
557
555
555
554
554
555
556
556
557
557
556
554
554
553
554
552
552
549
547
544
541
537
533
530
530
529
527
523
516
512
508
503
502
501
504
505
509
507
504
500
495
491
487
484
483
482
482
478
477
473
470
469
467
468
469
471
473
473
473
471
471
470
472
475
473
476
474
474
474
472
471
471
472
473
474
475
475
475
474
473
474
476
479
484
487
490
491
491
491
489
489
489
492
493
495
495
494
493
492
490
490
490
491
491
490
489
487
486
485
485
485
486
488
489
489
489
487
486
485
486
486
487
489
491
492
492
492
492
491
491
492
494
495
494
494
492
490
487
485
485
486
489
491
491
490
488
486
484
484
486
489
493
497
500
500
499
497
495
495
495
497
498
500
501
501
499
497
497
498
499
501
502
502
502
501
499
497
496
497
498
500
500
499
497
494
492
490
489
490
491
493
494
493
492
491
489
488
489
491
492
494
495
495
495
494
492
491
490
489
489
491
497
505
516
534
556
586
620
658
703
735
765
781
782
764
729
683
620
569
510
458
415
382
362
353
356
363
375
386
396
403
407
409
413
416
423
431
443
455
468
480
486
494
499
501
504
505
507
507
507
506
506
503
504
504
505
506
509
510
510
509
507
507
507
508
509
510
510
510
510
509
508
506
506
507
509
512
514
515
515
516
516
516
516
517
519
521
523
526
524
526
526
527
527
528
529
532
533
533
532
533
535
537
539
543
546
550
552
554
556
556
555
555
555
556
557
558
559
559
559
558
558
559
557
561
559
559
557
556
553
552
552
552
553
555
555
556
553
551
548
546
543
541
539
537
534
531
527
523
518
514
512
510
508
506
503
499
494
490
485
483
483
483
484
485
485
485
483
481
477
478
475
476
475
477
477
478
479
480
480
481
481
482
482
479
478
476
475
476
475
478
480
484
484
486
483
484
481
483
484
485
490
493
495
497
495
492
490
489
488
488
491
493
494
495
495
493
491
490
491
490
493
494
495
495
494
493
493
492
495
496
500
501
502
502
498
497
494
493
492
493
494
496
497
497
497
495
494
494
492
493
493
495
494
495
495
498
499
500
502
503
505
506
504
503
501
499
498
498
498
498
498
498
495
493
493
492
493
493
497
498
499
500
499
498
495
494
493
495
500
504
510
513
516
516
517
515
514
510
510
506
506
504
503
502
501
503
506
507
508
509
509
507
506
503
502
501
502
504
506
506
506
504
503
501
500
499
501
501
503
501
501
500
499
498
498
498
500
501
503
508
513
523
534
549
573
601
634
667
700
727
747
752
744
719
683
639
593
542
497
455
423
400
390
389
397
407
416
422
426
428
428
430
433
439
446
458
468
478
485
492
494
497
498
500
501
503
505
505
507
506
507
505
506
506
507
510
510
510
510
510
510
514
517
518
523
523
523
523
523
520
519
518
519
520
520
520
519
518
518
518
518
519
520
523
523
523
524
523
523
523
524
525
528
531
534
537
538
538
539
540
542
545
547
549
551
551
550
549
548
548
549
549
552
555
558
558
558
557
556
556
556
557
558
559
560
560
559
557
554
552
551
550
549
548
546
545
543
541
539
537
537
538
538
538
537
533
528
523
518
515
513
513
514
515
514
512
508
505
502
500
498
496
494
492
489
486
483
481
481
481
481
482
484
484
485
484
483
482
483
483
485
486
487
487
486
485
485
485
485
485
486
486
487
488
488
487
486
487
489
492
494
496
496
496
495
494
493
493
494
496
498
499
499
498
497
497
496
497
497
498
498
498
496
495
492
491
490
491
492
494
496
498
500
500
500
498
496
495
495
497
499
500
500
499
498
497
496
496
497
494
496
494
495
493
493
492
494
495
497
497
496
494
493
491
491
492
493
494
497
499
500
499
498
496
495
494
494
494
494
496
498
499
500
500
501
501
502
502
502
502
500
499
499
498
501
503
506
508
509
508
507
503
500
497
496
497
497
500
500
498
496
494
492
492
493
495
497
498
499
499
498
497
496
497
497
498
498
498
495
496
499
507
521
541
565
594
627
662
695
726
746
757
754
734
701
655
609
558
508
464
428
403
387
382
386
393
402
410
416
419
421
424
428
434
442
451
460
470
479
488
492
497
500
500
503
502
502
499
498
497
497
499
502
505
510
512
514
513
513
512
510
509
509
510
512
514
514
513
512
510
510
510
510
514
515
516
517
518
518
519
519
523
523
525
525
528
527
526
524
526
527
529
532
534
537
537
534
535
533
533
533
534
535
538
539
541
543
546
549
552
553
556
557
560
561
561
561
560
562
561
562
563
565
566
568
567
564
563
559
557
556
556
555
554
553
551
549
546
545
543
544
545
542
542
537
533
527
524
519
515
513
510
509
505
503
497
493
488
483
481
480
482
485
489
493
496
496
496
493
491
489
487
486
485
484
482
481
482
479
480
479
479
477
476
474
474
472
475
475
477
478
479
482
480
482
481
483
483
486
487
490
491
490
490
489
488
487
489
491
490
492
491
492
489
490
488
489
490
490
493
494
495
496
496
497
496
497
497
499
499
499
499
497
495
495
493
494
493
494
492
491
489
487
484
483
483
485
489
493
497
501
500
501
499
497
497
499
499
500
500
501
500
499
497
497
496
497
498
498
498
497
496
495
494
495
495
496
496
495
493
492
490
491
492
493
496
499
501
501
501
500
497
495
493
492
491
492
492
490
489
489
490
495
500
506
510
513
513
510
507
503
500
500
501
504
507
508
509
509
508
505
502
501
500
500
501
502
503
502
500
497
495
494
495
496
497
497
497
496
495
494
492
492
493
495
497
499
500
500
499
499
500
501
502
503
502
502
501
501
499
498
497
499
502
507
515
528
546
569
598
633
671
711
748
774
787
785
764
724
678
621
565
510
462
422
394
375
370
373
381
393
404
415
424
432
436
441
445
451
458
469
479
489
495
498
499
496
493
490
490
493
497
502
505
508
510
510
509
507
506
505
506
506
507
507
508
508
508
508
509
510
512
514
514
513
510
510
509
508
508
510
512
513
515
514
514
513
513
514
516
518
521
523
523
524
525
527
531
532
537
538
542
544
546
547
546
547
547
548
550
551
555
554
554
554
553
553
553
555
557
559
560
560
560
558
558
558
559
562
564
566
566
564
561
558
554
552
551
550
550
550
550
550
546
545
540
538
534
532
530
529
526
524
520
517
516
514
512
510
509
506
504
500
495
493
489
488
488
487
486
485
483
479
476
472
471
470
472
474
476
478
475
475
472
471
471
471
473
475
476
477
477
476
476
476
478
480
482
484
485
484
483
481
480
480
482
483
484
485
486
486
486
485
485
486
488
489
491
491
491
490
488
487
486
485
485
486
486
486
487
484
485
484
486
487
489
491
494
494
494
493
493
494
494
495
499
500
503
501
500
496
494
492
491
490
490
492
493
491
491
489
488
485
485
485
487
489
490
489
490
491
492
493
495
496
498
498
497
495
493
490
488
487
487
488
489
489
491
493
495
497
498
499
502
501
501
499
498
498
498
496
498
499
500
501
501
500
498
496
495
494
495
497
497
497
497
497
497
496
496
496
497
500
502
504
506
506
506
505
505
506
506
506
506
506
506
504
504
502
502
502
503
503
502
501
497
494
490
490
490
493
499
499
503
503
503
500
500
496
497
498
500
502
502
502
501
500
498
499
499
501
503
504
505
507
508
515
524
539
561
585
613
647
678
709
730
741
738
724
693
656
611
564
516
476
442
415
402
398
402
410
418
424
429
429
429
429
432
437
443
451
457
467
474
482
488
493
497
501
503
506
507
508
509
508
509
510
510
513
513
514
514
514
512
510
509
508
510
513
515
516
517
518
519
519
519
520
521
523
523
524
524
523
521
520
520
521
523
525
526
527
528
526
526
524
524
524
525
528
531
533
534
534
537
538
540
543
546
549
551
552
551
551
550
552
552
554
556
557
559
559
558
557
557
556
557
557
559
559
560
559
558
557
555
556
557
558
559
559
559
559
556
553
550
547
544
541
539
537
535
533
531
530
528
527
526
525
523
520
515
510
506
503
501
500
498
497
496
496
495
493
491
490
488
486
484
482
479
475
470
465
459
455
453
453
454
457
460
461
458
449
438
427
420
423
436
458
484
509
529
540
543
538
528
517
506
499
492
489
487
487
488
491
493
496
498
499
499
498
497
496
495
496
494
489
482
472
460
449
440
439
446
460
479
498
515
525
529
527
520
510
503
495
491
489
489
489
490
490
491
491
493
494
495
495
495
491
491
489
488
487
488
488
490
491
491
489
486
483
481
478
478
479
481
482
483
485
485
486
486
487
487
488
489
487
485
482
480
478
477
478
479
481
483
484
484
481
477
474
471
471
471
474
475
476
475
472
466
461
457
458
463
472
483
491
497
499
496
491
486
481
478
478
480
484
488
492
497
500
505
509
510
510
506
498
484
474
465
463
463
465
463
454
433
409
388
379
392
424
474
530
577
609
617
605
581
552
526
508
499
498
502
509
515
517
517
514
509
504
501
498
495
493
493
492
493
493
494
491
488
478
465
453
445
449
466
499
540
586
630
666
692
707
712
708
692
670
638
606
570
534
498
466
439
417
404
399
401
406
413
419
422
426
428
432
435
441
446
450
452
451
449
447
452
461
478
497
516
530
541
539
535
524
514
504
500
499
503
508
513
516
518
517
512
510
510
510
513
513
515
513
514
512
510
510
512
516
518
518
519
517
516
513
513
512
513
516
515
518
519
519
517
518
518
520
523
525
528
530
530
529
529
528
528
529
531
534
537
540
541
541
540
539
540
537
537
533
531
529
530
533
538
545
552
556
558
559
557
552
550
546
544
543
544
546
549
550
551
550
548
545
541
540
535
535
531
528
524
519
516
510
508
505
505
506
505
503
499
497
495
491
492
490
492
492
492
488
483
477
471
467
464
462
462
464
468
467
469
466
465
461
461
460
460
459
459
460
458
459
458
460
462
465
468
470
470
470
468
466
464
463
463
466
469
473
476
478
480
481
482
480
480
480
480
479
479
479
478
480
481
483
484
485
484
483
482
481
480
480
481
482
483
483
483
481
479
475
474
473
474
477
481
485
488
489
488
486
485
483
485
486
487
488
487
486
486
485
485
485
486
487
487
486
484
482
479
478
478
479
482
485
488
490
491
491
491
493
495
497
500
501
502
502
501
499
498
498
499
499
500
499
498
497
494
492
491
491
493
497
500
502
503
503
502
501
500
500
501
502
502
501
501
500
500
499
499
500
501
504
505
504
503
500
498
497
496
497
499
502
505
506
506
506
506
506
507
508
510
514
515
515
513
509
507
504
501
500
501
500
501
501
500
498
495
495
495
497
498
500
501
501
502
502
502
503
505
508
510
510
510
508
506
505
504
503
503
505
509
515
523
537
554
575
601
631
662
689
709
721
718
701
672
636
596
557
519
484
453
429
412
402
399
402
410
418
427
435
441
447
451
455
460
467
475
484
491
498
502
504
505
505
504
504
506
508
510
512
513
512
510
509
506
505
503
504
505
507
508
508
508
505
506
505
507
509
512
513
515
515
516
516
516
518
518
519
520
519
519
518
518
517
518
520
521
523
523
523
523
520
520
520
521
524
527
529
531
529
529
529
530
532
535
538
541
544
546
545
545
545
546
549
550
552
553
552
553
552
551
551
550
553
553
555
555
556
555
554
554
553
554
554
556
557
557
556
554
549
546
542
540
539
537
535
532
531
524
521
515
512
509
509
509
508
509
505
503
497
495
493
492
490
490
490
490
489
487
483
482
481
482
483
483
485
485
481
479
477
476
475
477
477
479
480
481
482
483
483
485
487
487
489
490
491
489
487
487
486
487
489
490
491
493
493
492
492
490
491
491
492
494
496
497
495
494
493
492
493
494
496
498
501
503
502
500
497
496
493
495
494
497
495
494
494
492
492
490
490
491
493
495
497
497
497
497
496
496
497
498
499
499
501
500
498
497
495
496
494
497
498
499
498
497
495
495
494
495
496
498
500
501
500
501
501
501
501
501
501
502
502
503
501
499
498
498
495
497
497
499
500
501
501
501
499
498
498
498
500
501
500
502
502
502
503
503
504
505
506
507
506
504
503
502
500
501
499
500
499
499
498
497
496
495
496
498
502
504
507
507
507
506
502
499
498
498
501
505
509
510
512
512
510
509
507
507
507
508
505
506
505
505
503
503
502
503
503
505
504
503
503
503
502
502
503
504
507
509
509
508
507
506
504
502
501
502
504
504
504
503
502
501
499
499
501
504
510
519
533
548
568
593
623
655
685
710
726
729
719
695
662
623
582
540
497
465
436
415
403
400
402
410
421
429
438
444
450
452
455
458
463
468
476
484
493
501
506
508
507
506
505
504
505
505
505
506
507
507
506
506
506
509
513
517
519
523
523
521
518
515
512
510
510
512
513
515
516
516
516
515
516
518
520
521
523
523
523
523
521
519
519
519
521
524
526
527
527
528
530
532
535
539
542
545
547
548
547
545
543
543
545
547
549
552
553
553
553
555
556
558
561
565
567
567
566
565
563
562
562
564
565
567
568
569
568
565
561
559
559
559
561
561
560
558
554
550
546
543
541
540
541
540
541
537
534
531
528
524
523
519
517
514
510
508
506
504
501
499
498
497
496
494
492
488
485
482
480
479
479
481
483
484
484
484
483
484
485
487
489
490
491
491
491
490
489
488
487
485
484
484
482
482
480
481
481
482
484
486
488
490
491
490
491
491
490
491
491
493
496
498
499
499
499
498
497
497
496
496
496
497
497
497
495
495
493
494
494
495
495
495
492
491
488
489
489
490
493
497
496
497
494
492
488
485
484
484
485
487
487
487
486
482
478
475
474
475
477
479
482
485
487
487
487
486
485
484
484
484
484
483
482
481
482
483
485
488
490
491
491
489
486
484
483
482
485
487
491
491
492
488
488
486
485
485
487
491
494
497
499
495
495
492
492
490
492
490
491
491
491
490
489
489
490
491
492
495
494
494
493
492
492
492
493
495
498
501
503
503
501
501
499
500
499
500
500
502
502
503
502
500
500
501
501
504
506
509
508
507
505
505
504
506
507
509
512
513
513
510
507
505
504
505
506
507
507
507
506
503
500
499
499
500
503
506
507
509
508
509
508
509
509
510
510
514
515
516
515
514
513
513
510
514
516
523
532
547
565
589
614
644
671
697
719
729
724
709
681
647
607
567
527
490
456
428
410
401
401
406
415
424
434
441
446
449
451
455
457
462
467
476
484
494
502
506
509
510
507
507
506
508
510
513
514
516
515
514
512
509
508
509
509
509
510
510
512
510
512
512
515
517
518
518
518
517
518
517
518
519
520
523
524
525
525
525
524
523
523
523
525
526
529
530
531
530
527
527
525
528
530
534
535
537
538
540
540
541
543
545
550
551
553
554
552
551
550
548
549
549
551
553
555
555
554
554
553
554
556
558
561
563
563
562
560
558
556
556
557
559
561
561
559
555
552
547
544
540
538
537
534
533
529
526
521
517
515
514
513
514
513
510
508
505
502
500
498
497
497
496
495
494
491
488
487
485
484
483
482
480
479
477
477
476
475
475
477
478
480
481
482
481
481
480
479
480
481
483
485
488
488
488
487
486
487
487
487
488
489
490
491
491
490
491
492
494
495
496
496
496
495
495
494
493
495
498
501
504
505
505
504
500
498
496
496
497
499
502
502
501
499
497
495
494
493
493
494
496
497
497
498
498
499
499
500
501
501
501
501
500
499
497
495
495
495
496
497
496
495
495
494
493
493
493
494
496
496
495
494
493
493
494
496
499
501
502
504
504
503
501
500
498
500
499
500
499
499
496
494
490
489
488
490
492
495
496
495
495
492
491
490
490
491
492
494
496
498
498
498
497
498
499
500
500
500
499
498
498
496
496
498
501
505
508
510
509
509
506
504
500
499
498
499
501
502
502
505
503
503
503
504
505
505
505
504
502
499
497
495
495
495
496
497
498
500
501
500
500
499
500
502
504
505
506
508
505
504
500
499
498
504
510
525
545
566
592
621
649
677
703
719
723
717
695
664
626
584
541
499
458
432
410
396
390
391
398
407
418
427
435
442
448
453
456
461
466
471
479
485
492
496
498
498
498
496
494
496
498
501
504
506
508
508
507
506
505
504
503
504
505
506
506
507
505
505
504
504
503
504
505
506
507
506
507
506
508
509
512
514
516
518
517
516
515
515
516
513
516
516
519
520
521
521
521
523
523
523
526
529
532
532
534
533
534
535
537
540
545
548
551
553
553
553
554
553
553
555
556
558
557
556
554
552
551
550
549
551
553
555
557
557
556
556
555
554
555
553
554
551
551
548
545
540
537
533
531
528
524
521
518
514
510
507
506
502
503
500
499
495
494
491
489
487
485
485
484
486
485
485
484
480
480
479
478
479
478
479
479
479
477
477
475
476
475
477
479
477
479
478
478
479
478
480
482
486
488
489
488
487
486
484
482
483
483
486
489
488
489
488
488
487
487
489
491
494
496
497
496
494
493
491
491
493
495
499
500
501
500
498
498
497
496
496
497
497
497
494
492
489
488
488
490
491
494
495
495
494
493
492
492
491
494
495
497
496
498
496
495
494
493
493
494
495
497
497
495
493
491
490
488
490
491
495
497
498
498
497
495
494
495
496
498
499
500
500
500
499
498
497
496
498
498
499
500
499
497
495
494
494
494
496
497
499
500
501
501
500
501
501
501
502
503
504
503
500
498
497
497
496
497
499
500
503
505
505
503
501
501
502
504
507
509
510
513
513
512
512
512
512
513
514
514
513
512
510
509
508
508
508
508
509
509
508
506
504
503
503
504
505
507
508
508
507
505
505
504
504
505
507
510
510
510
510
508
506
505
505
504
505
507
510
517
528
543
563
589
618
651
683
710
730
737
732
714
684
646
603
559
516
476
442
414
396
388
390
398
411
424
436
446
452
456
460
464
470
478
488
499
508
515
520
523
521
520
519
519
521
523
524
525
525
525
525
525
526
526
527
527
527
526
526
523
523
520
521
521
524
525
526
528
528
527
527
526
528
528
532
535
537
538
538
538
539
539
538
538
537
537
537
537
537
537
539
541
543
546
548
549
548
547
547
547
548
550
553
556
560
564
567
567
569
567
566
565
565
566
567
568
569
569
568
569
568
568
568
568
568
569
569
570
570
569
569
569
569
568
568
566
563
560
556
553
551
551
547
547
544
541
535
532
526
524
521
521
520
520
518
516
514
510
508
507
505
503
502
500
499
495
492
488
486
485
486
486
487
488
489
487
484
483
480
481
482
482
485
485
487
485
488
486
486
487
487
489
489
490
490
489
487
487
486
487
488
488
489
489
488
489
487
490
489
493
492
496
495
495
493
492
492
491
493
496
499
499
500
499
500
498
497
495
496
496
497
497
497
497
497
494
495
494
496
496
498
498
498
496
497
495
496
497
500
502
503
504
503
502
501
499
499
498
498
497
498
497
496
494
494
493
494
496
497
499
498
499
497
496
495
495
496
498
500
501
501
500
499
497
493
493
492
493
495
497
499
499
497
496
494
494
496
498
498
501
502
503
503
502
501
499
498
499
499
499
498
497
498
498
496
497
499
502
503
504
503
503
501
500
500
499
501
504
504
507
507
506
505
505
505
507
509
510
510
509
510
506
506
504
505
504
507
506
506
504
502
499
496
496
497
497
499
500
501
502
503
503
502
502
502
504
505
506
507
506
505
505
503
503
501
502
502
507
514
524
538
557
581
608
636
663
686
703
711
707
690
664
629
592
552
514
478
450
426
412
407
410
417
426
432
438
440
442
443
444
447
454
459
470
477
486
492
498
502
503
504
504
509
500
505
510
512
513
506
509
512
510
512
514
514
516
514
513
512
509
510
510
512
515
517
518
519
520
520
521
521
523
523
524
525
526
525
524
524
524
524
525
526
526
527
528
529
529
529
530
532
534
537
539
545
537
539
543
547
551
545
551
557
554
556
558
556
557
557
558
560
560
561
562
562
562
562
562
562
563
564
565
567
566
564
562
561
560
559
559
559
559
559
558
556
555
552
548
547
546
545
543
540
537
532
528
523
521
518
516
513
512
509
506
503
501
499
499
499
500
500
499
496
493
489
486
485
483
483
483
483
488
477
479
481
482
485
479
484
488
487
487
489
487
488
488
489
491
492
494
494
494
492
490
489
488
489
490
492
493
494
494
494
493
493
493
493
494
495
495
497
498
497
497
498
498
500
502
503
503
505
502
501
499
498
497
498
499
500
501
501
500
498
496
495
495
495
497
498
499
500
500
499
497
497
498
498
499
499
499
498
497
495
494
494
494
495
495
495
495
493
491
490
492
493
495
496
498
497
497
496
496
496
497
499
503
504
505
503
502
501
499
498
497
498
499
500
499
497
495
493
491
492
493
495
497
499
500
500
499
498
498
497
499
500
503
503
505
502
502
500
498
498
496
496
496
496
495
496
495
496
495
496
497
499
500
502
502
502
502
502
503
504
505
507
508
509
507
505
503
502
501
501
502
505
502
502
500
498
495
492
491
491
493
495
496
498
497
495
494
495
495
497
498
501
501
502
501
499
499
498
500
501
501
500
499
499
500
503
510
523
541
565
594
625
658
684
707
723
725
716
693
662
619
580
537
495
459
428
406
393
389
392
399
409
419
426
434
441
447
456
463
472
480
486
493
494
499
499
502
503
504
503
504
503
502
503
502
505
505
508
508
510
508
507
507
506
505
506
506
508
509
512
514
515
514
515
514
516
517
518
517
519
518
519
517
516
515
515
516
514
516
514
514
513
514
516
519
523
525
526
527
528
529
527
529
530
533
537
539
541
543
541
540
539
539
542
546
549
554
555
556
554
552
550
549
550
551
553
556
557
558
558
558
558
558
558
560
558
560
558
557
555
553
550
548
548
546
547
546
543
540
535
531
525
524
523
520
519
518
514
510
505
503
499
498
497
498
499
495
495
491
490
487
485
482
481
480
482
479
480
477
476
477
478
477
478
477
477
476
476
475
474
478
476
479
481
482
485
485
485
484
484
484
484
484
484
484
483
482
480
479
479
480
483
486
488
490
490
491
491
491
491
491
493
494
494
493
492
491
490
490
491
492
493
494
495
493
492
489
486
485
485
486
488
489
490
491
491
491
492
494
496
499
501
501
499
496
492
490
489
490
490
492
493
493
492
492
490
489
489
488
490
491
491
491
491
491
492
493
495
497
499
502
503
503
502
499
497
495
495
495
495
496
497
497
496
495
494
493
492
492
494
494
495
494
494
494
495
496
498
499
501
502
502
500
498
496
495
494
495
495
496
496
497
496
495
494
493
495
497
498
499
499
499
498
498
498
498
499
501
504
507
507
507
505
504
503
503
502
502
503
502
500
498
496
496
494
495
495
496
498
498
498
497
495
495
496
498
500
502
502
502
502
501
500
499
499
496
500
499
501
500
500
498
498
499
499
501
501
502
505
510
518
531
549
572
602
635
668
700
724
739
739
726
700
664
622
578
533
490
452
419
396
383
382
389
401
414
427
438
444
451
454
457
461
467
474
483
491
497
501
501
501
499
498
497
497
498
499
500
501
500
500
501
501
503
505
506
507
507
507
506
505
505
507
507
510
513
515
513
510
509
508
507
508
509
510
512
512
510
509
507
507
508
510
512
514
516
517
518
519
520
520
523
524
528
531
532
533
534
532
532
534
533
537
537
538
538
539
539
538
540
542
545
548
552
551
553
554
552
553
552
554
556
557
559
559
557
556
551
551
549
549
549
549
548
549
546
544
540
535
534
533
534
534
532
531
529
526
521
518
515
513
513
512
510
508
505
501
498
495
491
489
488
487
486
485
482
479
478
478
479
480
481
481
482
482
480
479
478
478
479
480
481
479
480
478
479
478
479
479
481
482
483
484
482
481
480
480
477
479
481
483
485
486
487
489
489
491
491
493
495
497
497
498
498
498
497
497
497
498
497
500
498
497
495
495
495
493
495
494
496
495
496
495
497
494
495
495
495
497
498
499
499
497
498
496
497
496
496
495
495
494
492
490
488
486
485
486
488
490
491
492
491
491
489
489
489
490
491
493
495
496
496
495
494
493
491
491
491
493
494
495
493
494
491
492
492
493
493
494
494
494
494
493
494
495
495
499
499
500
499
500
499
498
497
496
497
498
501
503
502
502
501
500
499
499
499
500
500
500
499
499
500
501
501
503
504
505
506
506
504
502
500
498
496
496
496
494
493
492
491
491
491
492
493
495
498
499
500
500
498
498
497
498
499
500
501
502
503
506
510
519
531
550
574
602
632
662
687
705
713
709
692
666
632
595
555
516
479
446
419
401
390
391
389
399
411
424
434
435
443
451
455
464
474
481
491
495
498
500
499
498
497
498
500
502
503
503
503
503
503
504
506
508
512
515
517
517
515
514
514
513
513
514
515
517
517
517
517
515
514
514
515
517
519
520
520
520
520
520
520
521
523
526
528
529
528
527
528
528
529
531
533
534
535
535
534
533
532
532
533
538
540
544
546
548
549
549
550
551
553
556
559
561
562
562
562
560
559
557
556
557
557
557
558
557
557
555
555
556
557
558
558
558
556
554
552
550
548
546
545
545
544
543
540
537
531
527
524
521
519
517
514
512
506
503
499
497
494
494
493
493
492
492
491
489
487
485
484
485
485
486
486
484
483
481
480
480
479
481
480
481
480
478
476
475
475
477
480
482
484
484
485
484
483
482
481
483
485
488
492
495
493
493
491
488
489
488
489
490
493
491
492
490
489
488
488
489
491
494
495
496
497
496
495
495
496
496
497
498
498
499
498
498
497
496
494
495
492
493
491
491
489
487
487
488
489
490
489
490
490
488
488
488
488
490
493
495
496
496
494
492
489
488
488
489
491
492
494
494
494
493
493
490
491
491
492
494
496
497
497
496
495
494
495
497
497
498
499
498
497
494
492
490
491
490
493
493
494
492
492
490
490
490
491
493
495
496
497
496
493
492
490
491
492
494
496
498
500
501
500
498
497
495
495
495
497
498
499
500
501
500
501
499
501
500
502
502
502
502
501
502
502
503
504
505
505
505
504
499
498
494
496
495
498
498
497
496
494
493
492
491
492
494
494
497
498
499
499
497
498
497
499
500
501
503
503
507
514
521
537
554
577
606
642
672
702
723
733
730
714
684
648
606
557
512
468
430
398
376
365
367
375
390
404
417
428
436
441
448
454
462
471
481
488
494
498
499
498
498
498
500
502
505
507
508
508
509
510
508
510
510
513
512
512
510
510
510
510
510
510
512
513
512
513
510
510
509
509
510
514
516
517
517
517
517
517
517
518
519
523
525
529
530
530
531
529
529
528
528
529
530
531
530
532
533
535
537
539
542
542
544
544
545
543
544
547
550
554
555
559
560
562
561
561
560
558
560
558
560
559
560
561
561
557
559
556
557
556
557
557
558
557
557
553
554
552
552
553
552
551
550
546
542
537
532
528
524
520
517
514
510
507
503
500
497
496
497
498
497
495
493
490
487
484
482
481
482
483
484
483
482
481
479
477
476
475
476
478
477
478
477
476
477
477
479
480
482
482
481
480
480
480
481
484
486
489
491
491
491
490
490
489
490
490
491
491
493
493
493
492
490
490
490
491
492
494
496
498
499
498
498
498
499
500
503
505
505
505
503
501
498
495
494
493
493
494
495
494
492
490
488
488
487
487
487
488
489
490
489
489
489
489
491
494
496
498
499
499
497
496
495
493
492
492
493
494
494
492
490
489
489
489
490
491
491
492
491
490
489
488
490
491
494
495
497
496
494
492
491
489
489
489
489
490
490
489
486
483
481
480
483
485
489
492
495
496
496
495
495
495
498
501
504
507
508
508
506
504
502
501
501
501
501
500
499
496
493
490
489
489
491
494
494
493
491
490
488
487
487
490
491
496
498
499
499
498
497
496
496
497
498
499
501
501
501
500
498
497
497
500
507
518
535
556
583
615
652
692
732
765
785
793
784
758
716
662
602
538
479
427
386
362
352
354
363
375
389
400
412
419
426
432
438
444
452
462
473
483
492
498
502
501
499
498
495
495
497
500
504
507
509
510
510
508
507
507
507
507
508
509
510
510
510
509
509
509
513
515
518
523
523
523
521
520
519
519
520
523
525
526
526
525
523
521
521
520
523
525
529
533
537
537
538
539
539
541
542
545
548
550
551
550
548
548
549
550
554
558
562
563
566
566
566
565
565
564
565
566
567
568
568
568
568
566
567
565
566
565
566
565
564
561
560
558
558
558
558
555
555
551
550
547
544
541
540
538
537
535
533
533
529
526
520
518
515
515
515
513
510
506
501
496
491
488
487
487
487
488
487
487
484
483
481
481
482
482
483
484
485
485
486
485
484
486
486
488
489
489
488
487
483
484
485
486
488
492
494
494
495
493
492
491
491
493
494
497
498
498
496
494
492
492
492
493
495
497
499
498
498
495
493
491
491
491
492
493
493
493
492
492
492
491
493
493
494
495
496
497
497
496
497
496
497
499
501
499
498
497
497
496
496
496
498
498
499
498
496
494
493
491
491
491
492
491
492
491
491
491
492
492
494
495
498
501
503
500
499
497
498
498
499
503
506
509
510
510
509
507
505
503
503
504
505
506
506
506
504
503
502
501
502
502
503
503
503
502
500
497
496
495
496
497
498
498
498
497
495
494
494
496
498
500
502
503
504
503
500
499
498
500
507
517
531
550
573
602
638
676
715
750
775
793
773
752
711
658
595
523
463
412
371
349
343
346
359
373
387
400
410
418
424
429
433
438
444
452
461
472
482
490
496
500
501
500
498
497
498
500
504
507
509
510
510
510
509
507
508
510
512
515
516
517
517
517
517
518
519
520
521
523
523
523
520
520
520
521
523
524
526
527
527
528
529
528
529
529
530
534
537
541
542
543
544
545
546
548
548
549
550
551
551
551
551
552
554
557
559
562
563
563
563
563
563
564
564
565
568
571
572
573
573
569
566
562
559
556
555
554
554
554
555
556
557
557
558
559
559
559
558
556
553
550
548
545
542
541
538
537
534
529
526
523
518
516
514
510
506
499
492
484
473
469
465
468
475
487
494
501
505
504
501
496
492
491
491
493
496
499
502
503
503
503
502
502
501
501
500
498
496
495
495
496
497
500
503
505
507
507
507
504
501
498
497
498
499
500
503
504
507
509
510
510
512
513
514
515
515
516
516
517
518
519
520
520
520
521
521
520
519
520
521
523
525
527
528
526
524
521
520
517
518
518
519
520
520
520
520
517
517
516
517
519
523
524
525
527
528
529
531
534
537
539
541
541
542
538
537
532
530
528
529
530
533
534
534
532
530
526
525
523
523
525
529
533
537
537
537
537
535
535
535
535
537
538
539
538
538
537
537
537
538
538
539
535
537
532
532
530
530
532
534
535
542
549
559
572
590
611
643
666
693
721
740
750
745
726
689
655
613
566
525
487
457
436
426
421
427
434
444
452
458
462
465
467
471
475
483
490
500
509
520
528
537
539
541
541
540
539
540
540
540
540
540
541
542
540
542
542
544
545
545
544
543
540
537
532
531
533
537
542
548
553
559
562
564
564
564
563
561
559
559
560
561
562
563
564
565
567
570
568
570
568
570
571
573
574
578
580
583
584
584
585
584
581
582
582
582
579
575
567
559
550
545
545
554
570
588
603
616
620
621
615
608
601
596
594
595
596
597
600
598
598
593
592
588
588
586
586
582
577
571
565
561
559
559
559
555
550
537
523
506
492
484
488
498
521
545
567
581
585
579
566
553
537
526
520
519
521
523
523
523
523
519
517
513
510
509
506
504
502
500
500
502
504
506
508
508
507
505
502
499
496
494
493
494
494
495
494
494
493
493
493
493
493
494
495
495
495
494
494
493
494
496
498
499
499
499
499
498
497
496
496
496
495
494
491
489
486
484
484
486
489
493
497
498
498
496
492
488
486
484
485
487
487
488
487
487
487
488
489
491
493
495
496
496
496
493
491
488
488
488
490
493
496
500
502
503
502
503
502
503
504
506
507
505
501
496
491
491
494
500
509
517
523
523
521
517
512
509
508
506
507
508
508
509
509
509
508
508
508
509
510
510
509
508
508
508
508
509
510
512
513
514
515
510
509
506
504
505
507
514
523
535
554
576
605
639
679
722
764
801
825
832
820
791
746
689
624
556
493
438
394
367
356
355
364
378
392
404
415
423
428
432
437
443
455
459
476
494
510
523
521
527
529
524
524
525
526
530
534
537
538
538
537
537
535
537
537
540
541
543
543
543
542
543
542
543
545
547
552
553
553
552
548
546
545
544
543
544
543
543
544
544
543
545
547
549
553
556
560
564
566
567
570
572
575
577
579
580
580
580
580
580
578
580
581
584
587
589
589
590
589
590
591
592
595
595
596
597
594
593
590
588
589
590
592
595
596
596
594
591
589
587
586
585
584
583
582
580
576
570
566
560
558
556
556
555
554
551
549
544
540
534
530
525
523
520
516
512
508
505
502
499
497
494
492
490
489
488
487
485
484
484
484
485
486
486
484
482
481
479
479
480
482
484
488
487
489
487
486
483
483
482
484
486
490
492
493
493
494
493
491
492
491
493
493
496
495
495
495
494
494
494
495
497
499
498
499
498
496
494
494
493
493
494
493
492
490
490
488
488
490
487
488
485
486
485
486
486
486
488
488
490
490
492
490
489
490
486
488
487
488
488
490
490
493
493
494
492
492
491
492
489
489
489
489
489
491
492
497
498
503
504
505
503
501
498
495
495
495
494
495
496
496
495
493
491
488
487
488
490
492
494
494
495
493
493
488
489
488
491
494
499
505
515
528
546
570
599
636
676
714
751
773
784
777
752
711
658
597
534
474
423
385
363
355
361
373
389
401
408
411
412
412
413
417
423
432
442
454
465
477
486
492
494
495
494
495
495
498
501
504
507
509
507
508
507
506
502
501
497
496
494
496
500
508
516
525
533
537
537
535
530
523
521
519
519
523
525
528
530
531
531
531
531
533
534
537
538
541
541
542
545
543
546
545
546
547
547
547
546
545
544
543
543
546
550
553
556
557
560
561
562
563
564
566
567
569
570
569
568
567
565
565
565
565
566
567
567
567
565
561
557
555
553
553
554
554
555
555
554
553
550
547
544
541
537
534
530
525
521
517
514
512
510
506
504
501
499
496
493
491
491
491
492
493
494
493
491
489
486
483
481
479
480
481
482
483
484
483
482
482
482
483
482
480
477
472
467
462
459
459
464
471
480
489
495
499
500
499
498
496
496
495
496
495
495
495
493
492
492
492
492
493
495
495
495
494
492
491
490
490
491
491
492
491
490
489
488
488
488
488
489
489
489
489
487
485
482
481
479
479
480
482
483
484
484
483
482
479
478
477
477
479
481
483
485
486
488
489
490
490
489
489
488
487
486
485
485
485
487
487
486
485
484
481
479
477
477
478
479
483
486
486
489
488
487
486
486
486
488
488
489
488
486
487
485
485
486
487
489
493
495
498
502
509
521
541
569
605
648
694
739
774
799
805
794
771
728
675
616
554
495
444
405
378
368
368
376
387
398
406
411
414
417
420
426
434
442
452
464
474
483
490
494
498
499
502
504
506
507
507
507
507
505
505
505
506
509
514
517
520
519
520
516
518
517
518
519
520
521
523
523
524
524
523
525
526
529
529
531
529
528
528
528
527
528
529
530
532
534
531
530
527
526
527
529
533
537
541
546
550
554
558
562
566
571
575
578
579
578
577
573
571
570
568
569
569
571
570
570
568
566
565
562
564
564
566
565
565
564
562
562
559
559
558
559
561
562
559
558
555
552
548
545
541
538
533
529
524
518
513
508
501
499
495
494
491
490
487
484
482
481
480
479
481
482
481
482
480
479
477
475
473
472
470
470
470
468
468
467
464
465
465
468
469
473
472
473
474
474
474
474
475
476
479
479
479
478
474
474
472
471
472
472
474
476
478
480
482
483
485
487
488
490
491
492
489
488
487
487
487
490
492
494
495
494
493
491
489
488
488
487
488
488
488
487
485
483
482
482
483
483
486
488
490
491
493
492
491
489
490
490
492
492
494
494
493
492
493
491
491
491
493
494
494
494
491
492
491
492
492
493
492
493
492
490
489
488
487
490
493
493
496
495
496
492
492
490
490
491
493
493
493
492
491
488
484
482
480
480
481
485
491
499
510
529
552
583
620
665
713
759
800
824
833
816
788
739
677
605
534
466
409
366
341
332
336
349
363
376
387
394
398
402
405
409
416
425
439
453
468
480
487
490
490
488
487
485
485
486
488
491
492
492
492
492
494
495
497
498
498
498
497
497
498
498
501
504
508
510
510
509
508
506
506
507
508
510
513
514
515
515
515
514
513
514
515
517
519
521
523
523
524
525
528
531
535
538
541
543
544
544
544
545
548
552
555
559
559
560
560
558
557
557
557
558
561
563
565
566
565
565
565
565
567
567
568
568
568
566
564
561
558
556
555
554
554
553
551
548
546
544
541
539
537
535
533
530
526
521
516
510
507
505
502
501
501
501
498
495
492
490
487
485
482
479
478
475
472
470
469
471
473
477
480
482
484
483
482
481
480
478
478
479
481
482
483
483
482
482
482
482
483
482
483
484
485
485
483
483
482
483
484
486
489
489
490
489
490
490
491
493
495
496
499
498
498
496
494
495
493
493
493
493
493
493
492
491
489
488
488
489
490
490
490
489
487
486
486
487
489
492
495
497
497
497
495
494
492
493
494
498
499
502
500
499
497
494
493
491
492
493
493
493
492
489
485
485
486
488
492
496
499
501
501
500
498
496
495
495
496
497
499
498
496
494
492
491
491
492
493
496
496
498
494
493
489
489
490
495
505
521
539
565
598
639
681
724
762
790
798
787
760
716
660
601
541
478
441
405
382
371
368
373
380
392
399
407
415
420
426
431
436
444
451
460
471
483
492
500
504
504
504
502
500
499
499
501
503
507
509
510
510
510
510
510
512
514
517
517
519
518
517
515
513
514
515
517
519
523
523
523
520
518
516
516
516
518
521
525
528
531
532
533
531
532
533
537
538
541
543
545
544
545
544
545
546
548
548
551
551
552
552
552
551
554
556
559
562
564
564
565
565
565
565
566
568
571
573
573
573
569
566
561
557
554
551
549
550
551
553
555
556
557
557
558
555
554
549
546
540
537
531
525
521
516
514
509
504
498
494
490
485
483
480
480
477
477
474
472
469
466
464
460
461
457
455
453
447
446
445
446
453
460
470
477
485
487
486
482
476
472
471
470
475
478
481
483
484
482
480
478
477
478
479
481
485
487
487
489
489
489
489
490
490
491
490
489
487
486
485
484
484
485
486
487
489
489
489
487
485
484
484
485
485
486
485
483
481
479
477
477
476
479
481
486
486
490
487
486
485
484
484
483
484
485
486
483
485
485
486
486
489
490
492
493
493
493
493
494
495
498
500
502
504
504
501
499
496
495
495
495
494
494
494
494
493
492
492
491
492
493
495
496
499
500
503
506
509
512
514
516
516
515
513
510
509
506
506
505
505
505
504
504
502
500
497
494
493
494
499
508
521
539
562
590
624
664
707
750
784
814
821
808
782
734
676
613
549
492
445
410
389
379
379
385
394
403
413
421
427
433
437
443
450
460
473
486
498
509
517
521
523
523
521
523
523
525
528
531
533
535
535
534
532
531
531
531
533
537
537
538
538
539
540
540
541
544
546
549
552
552
552
552
551
551
552
554
556
557
558
558
557
556
555
554
555
555
557
559
561
561
561
562
563
564
566
568
570
576
566
571
578
581
585
578
581
584
581
582
583
581
583
584
584
585
586
587
588
587
588
588
587
586
585
584
584
584
585
586
589
587
590
589
591
591
590
589
585
581
577
571
566
562
558
557
554
552
548
544
540
537
533
530
529
526
525
524
523
521
518
514
510
509
507
506
505
503
502
502
502
502
503
505
507
510
513
515
514
517
517
518
518
517
516
516
516
516
516
514
513
513
512
512
510
510
510
510
512
510
510
509
509
510
510
512
513
513
513
512
510
509
508
505
505
504
503
502
500
499
498
499
500
501
501
501
500
499
498
498
499
502
505
507
508
508
507
505
501
497
493
491
490
489
490
490
491
489
489
488
487
487
485
485
483
482
478
477
474
473
472
472
474
475
477
479
478
476
475
472
471
470
469
468
468
469
465
464
461
461
460
461
462
464
465
466
466
465
463
462
461
463
464
467
468
470
470
469
467
465
463
460
461
461
460
461
460
460
459
459
458
458
457
456
453
450
449
446
445
447
449
452
454
455
456
455
455
453
451
450
451
451
451
451
451
451
451
451
449
450
447
446
444
443
444
449
459
477
500
531
569
610
653
693
726
749
754
742
712
667
611
553
489
429
374
334
308
297
299
307
320
333
343
351
355
359
362
367
376
386
400
412
423
433
438
441
443
443
444
444
447
447
449
450
451
451
453
456
458
460
463
463
461
461
460
460
461
463
467
470
475
475
477
476
476
478
478
480
481
482
481
481
479
478
477
479
480
483
485
488
489
489
488
486
485
486
488
491
492
494
494
495
495
498
499
504
508
513
516
517
518
518
515
517
518
523
525
528
530
532
530
528
524
521
519
519
519
523
526
529
531
534
534
537
535
535
534
532
531
529
524
523
518
516
513
512
510
509
507
503
499
496
494
490
488
486
482
478
473
468
465
462
460
459
458
457
455
453
451
447
444
443
443
445
446
446
445
444
442
440
438
436
437
438
440
442
443
444
444
442
442
442
442
444
445
447
448
450
449
450
449
449
450
450
451
452
453
453
451
450
449
451
452
455
457
459
460
462
463
463
465
467
471
474
476
477
476
475
473
472
471
471
472
472
473
472
470
468
466
466
467
469
470
471
472
471
468
466
463
463
466
470
476
481
486
490
493
494
495
496
497
498
499
499
500
500
500
499
498
499
499
500
502
503
503
503
504
504
504
504
506
507
509
510
510
509
509
508
508
508
509
510
510
510
508
507
504
501
501
501
504
507
510
514
516
517
517
518
519
519
521
521
520
518
517
516
515
515
514
515
516
518
519
520
520
519
518
517
517
518
519
519
520
521
523
523
524
525
526
527
528
528
526
523
520
518
517
517
517
518
519
518
518
518
516
515
516
517
518
520
521
523
523
524
525
525
525
525
526
526
526
523
523
520
519
520
519
521
520
520
518
517
515
514
520
529
548
572
601
638
672
720
762
797
820
826
815
788
749
690
629
568
510
463
427
405
398
401
410
420
429
435
440
443
445
448
454
459
469
478
489
500
509
518
525
529
532
531
530
529
527
526
525
525
526
527
528
531
532
533
534
534
535
537
537
539
540
541
541
542
543
543
544
546
549
552
556
560
564
565
567
566
567
565
565
564
564
563
562
559
557
554
552
553
551
552
551
550
550
550
549
549
550
550
551
552
554
553
552
550
549
548
549
551
552
554
555
554
554
550
551
551
554
557
560
564
567
568
569
568
567
566
565
566
567
567
567
565
562
561
558
556
554
552
551
548
547
544
539
537
532
530
529
528
524
524
521
519
516
514
510
510
508
507
505
503
502
500
496
494
492
490
490
489
488
486
484
482
479
478
478
479
477
477
475
474
474
474
475
478
480
482
484
486
487
486
482
481
478
478
480
482
483
486
487
488
487
486
487
488
488
491
491
493
494
494
492
492
490
490
490
491
492
493
494
494
495
497
498
500
501
501
501
501
501
502
504
507
510
515
518
520
520
519
517
514
512
510
510
512
512
513
513
513
510
510
506
505
504
505
507
508
507
507
505
503
501
500
499
501
501
505
507
508
509
510
509
509
508
509
507
506
503
502
498
497
495
495
497
499
500
503
502
501
499
499
498
500
503
506
509
510
512
513
512
510
509
508
507
505
503
502
500
498
497
497
498
499
499
499
497
494
492
489
488
489
491
493
495
497
497
497
496
494
493
492
492
493
494
493
493
490
488
486
483
481
478
476
475
478
486
500
520
548
582
624
668
712
749
773
780
769
739
696
644
587
532
482
437
401
377
363
359
362
369
377
383
388
392
394
397
400
405
413
425
438
452
464
472
476
475
470
464
459
458
461
468
478
487
497
503
506
506
504
501
498
496
495
496
497
496
496
496
494
494
495
494
493
493
492
492
491
492
493
493
495
497
498
499
498
499
500
501
503
505
506
506
506
504
503
503
504
505
506
509
510
510
512
510
509
507
507
507
510
515
520
523
524
526
528
530
535
542
550
557
563
565
563
560
555
552
550
550
551
552
551
550
548
545
541
539
539
539
539
539
538
537
534
531
528
524
523
519
516
510
504
498
489
487
484
487
490
494
496
496
495
490
484
477
470
467
463
462
462
462
462
462
462
463
463
463
463
462
461
459
457
454
452
450
449
449
450
450
451
451
450
450
450
450
450
450
451
451
452
452
454
458
461
468
473
477
479
477
476
471
468
464
461
462
461
465
466
469
470
468
468
465
465
464
465
466
467
468
469
470
470
469
469
468
469
471
473
474
476
477
475
476
474
474
473
472
471
470
469
468
467
467
471
473
476
480
482
482
480
477
474
472
471
470
470
470
470
469
468
466
464
462
461
462
463
465
467
468
468
467
465
462
460
458
458
457
459
461
464
467
471
474
476
476
474
471
466
463
460
460
462
466
470
474
476
477
475
473
470
469
470
472
476
479
483
486
486
486
485
483
482
480
481
479
480
479
478
476
473
472
472
473
473
474
476
475
476
475
477
478
481
484
489
490
495
497
498
497
496
494
494
493
491
491
489
486
484
483
485
489
498
513
533
557
591
629
664
708
745
775
793
791
775
739
687
626
560
496
440
394
363
342
338
341
350
359
367
373
379
385
393
403
416
433
449
466
481
492
501
505
506
504
501
499
497
496
495
496
497
499
501
503
504
505
504
504
501
502
501
503
505
507
508
510
510
512
513
515
519
523
523
525
524
524
521
521
519
520
521
521
523
524
524
523
524
525
525
531
533
537
539
541
541
540
540
539
539
542
544
547
550
553
552
555
554
555
555
555
556
557
558
557
558
557
556
557
559
562
561
566
565
565
565
564
562
563
565
567
571
573
572
571
567
563
558
552
549
545
542
540
537
534
531
527
523
520
517
515
510
503
494
487
477
471
469
471
475
482
489
493
495
493
489
484
480
477
474
473
473
472
471
468
466
464
462
461
461
461
461
461
460
459
458
458
459
460
461
462
462
462
461
460
460
461
463
467
470
472
474
473
471
470
468
467
469
471
475
478
481
481
479
478
477
476
475
475
477
478
479
478
477
475
473
471
469
468
468
469
470
473
476
480
484
488
490
491
491
490
488
487
485
486
487
488
490
491
491
491
489
486
484
483
483
483
484
484
484
483
481
480
478
478
479
480
481
482
483
483
483
484
483
483
484
486
487
488
488
487
488
488
489
489
490
490
491
492
491
490
490
490
491
492
494
496
497
500
502
504
504
505
505
505
505
504
502
501
499
498
497
496
498
496
498
496
495
492
490
488
489
490
493
496
498
499
501
501
501
502
502
502
504
506
509
510
510
509
507
504
502
500
499
496
495
495
499
507
519
537
562
595
635
679
725
769
809
829
835
819
789
743
685
615
548
484
429
387
363
355
359
369
382
395
404
411
414
417
418
422
429
439
452
466
479
490
498
502
503
502
501
501
501
503
506
506
509
509
509
509
509
509
510
508
508
507
506
506
506
508
510
514
517
519
519
521
523
524
524
525
525
526
526
526
526
524
523
520
518
518
518
520
523
524
525
527
528
529
531
533
534
538
539
540
540
539
538
539
538
541
541
543
543
545
548
550
554
558
563
567
572
575
578
580
581
581
580
578
578
576
576
576
575
574
574
572
572
571
571
570
570
568
566
563
558
553
548
545
542
537
534
528
523
514
507
500
495
493
492
494
498
502
506
508
507
501
496
489
485
482
482
483
483
483
481
478
475
471
470
468
469
465
467
464
463
462
461
462
462
463
465
465
465
462
464
462
464
466
465
468
467
467
468
466
467
467
472
475
480
481
482
484
480
479
477
476
477
477
480
482
483
484
484
484
484
484
485
485
485
484
483
481
479
478
476
477
478
479
479
479
477
476
475
474
474
475
476
477
475
475
474
473
471
472
472
476
481
484
488
489
489
490
490
488
489
487
487
486
485
483
483
481
481
480
481
483
484
483
483
481
482
483
485
486
489
490
491
491
490
491
491
490
493
493
495
495
494
492
490
486
485
483
485
487
490
492
494
495
495
492
490
487
487
487
488
489
488
489
487
486
486
484
484
485
486
489
490
490
490
491
491
492
493
493
493
494
493
494
498
504
517
537
565
599
638
682
724
764
793
809
807
788
752
697
637
571
505
447
398
366
349
347
353
365
375
383
391
395
400
405
410
417
426
435
446
458
470
480
486
491
495
496
497
497
497
497
497
497
498
499
501
503
505
507
507
508
508
509
510
512
513
515
517
518
516
514
510
508
507
506
507
507
508
510
513
514
515
516
517
519
521
523
524
525
526
527
527
529
532
537
541
544
547
549
549
548
548
549
550
553
556
558
559
559
558
558
558
558
559
560
562
563
564
565
565
565
566
568
570
573
574
577
577
575
572
569
565
565
565
566
567
568
568
565
561
557
553
550
546
543
540
538
534
532
529
525
521
518
514
510
506
502
498
493
490
486
484
483
480
479
475
473
469
467
466
465
466
468
469
470
471
471
470
468
466
465
465
465
467
468
469
468
469
469
469
470
472
473
475
477
478
476
475
475
474
474
476
477
479
480
481
481
480
479
478
477
478
479
480
480
481
481
483
485
487
490
492
493
493
492
490
488
486
484
481
479
476
473
471
470
472
477
481
488
493
497
499
500
497
492
489
485
484
483
483
484
484
484
484
482
480
478
478
479
479
480
481
481
481
479
480
479
480
481
484
486
490
491
492
490
490
490
489
489
490
491
492
493
493
493
492
490
491
492
494
495
495
494
492
493
491
492
492
493
495
496
496
495
492
491
490
489
489
490
491
492
491
489
486
483
481
483
483
485
489
491
494
495
498
497
496
493
491
489
489
492
501
514
537
566
601
646
691
735
776
806
821
810
789
747
693
627
561
496
437
392
361
346
343
350
361
374
385
394
398
402
405
408
413
421
434
449
463
476
485
491
492
490
486
485
484
486
489
494
498
501
503
503
503
505
504
508
508
510
510
509
508
506
504
503
500
498
496
495
495
498
501
504
508
510
510
512
512
513
516
519
524
529
534
538
540
540
538
537
533
533
532
534
538
539
544
545
548
546
546
542
543
543
545
547
549
551
555
556
557
556
557
559
563
565
568
567
568
566
565
563
561
559
560
559
561
560
562
561
560
559
559
557
556
552
550
547
544
540
539
537
534
535
534
535
532
529
523
520
516
510
506
500
495
490
486
477
473
468
466
466
470
475
481
484
488
486
485
479
476
472
468
468
467
470
470
471
469
469
467
468
466
467
466
467
467
466
465
465
465
466
468
470
471
471
470
469
468
468
468
469
471
474
476
477
478
477
477
477
478
479
480
481
481
481
480
479
479
479
480
481
483
484
484
484
483
481
480
480
482
484
486
487
488
487
486
485
484
484
484
484
484
483
482
479
478
476
476
477
479
481
483
483
483
483
483
483
484
485
486
488
487
487
486
483
482
481
481
483
484
486
486
486
485
484
482
481
481
483
486
489
492
494
495
496
496
497
498
499
499
498
497
496
495
494
494
494
494
495
493
492
490
487
484
483
483
485
488
491
493
494
495
495
495
495
496
496
498
499
499
499
498
497
495
495
493
493
494
497
501
509
521
538
566
599
639
686
734
775
810
824
820
795
758
702
636
567
501
443
395
363
348
348
356
368
380
390
397
401
403
404
407
412
423
436
452
469
484
495
501
503
502
500
498
498
500
503
506
507
507
507
506
507
507
508
508
509
509
510
510
510
510
513
515
517
521
523
523
521
520
519
519
521
523
525
527
529
530
530
530
530
529
529
529
530
531
532
533
533
533
533
534
535
537
540
542
542
544
544
547
548
551
554
556
558
560
561
561
561
561
561
564
566
570
575
578
580
580
579
578
576
575
576
576
576
576
575
574
572
570
568
567
567
567
568
565
564
560
557
554
550
546
543
539
537
531
527
524
519
515
512
508
507
505
502
500
497
494
492
491
489
489
487
487
486
484
482
479
477
476
478
479
479
480
479
479
478
478
475
476
476
479
480
481
480
480
479
479
479
481
486
489
491
493
492
491
488
487
486
488
489
493
494
496
498
498
495
495
494
496
497
497
497
498
497
495
494
492
495
496
496
499
498
498
498
495
495
493
494
494
498
497
499
497
495
493
491
491
491
493
494
496
495
494
494
493
493
492
493
493
494
495
493
493
491
491
490
492
493
494
496
496
497
494
494
493
493
495
497
500
503
504
505
504
502
502
502
503
504
504
503
502
500
499
498
497
496
496
496
495
495
492
492
490
492
493
495
496
498
498
498
497
495
494
494
493
497
498
502
503
503
501
500
497
496
494
495
497
501
508
514
527
541
563
589
622
658
696
727
750
757
747
723
687
638
588
534
483
435
396
369
357
357
370
387
407
422
433
436
434
433
430
432
435
443
452
464
477
487
498
503
508
508
507
507
506
506
506
506
506
505
505
505
505
507
509
510
510
512
510
510
508
507
506
508
509
512
513
514
514
515
516
516
518
519
520
521
523
521
521
520
520
521
523
525
527
527
526
525
523
523
524
526
529
533
537
539
541
541
542
542
543
544
545
548
550
551
552
552
551
551
552
553
554
555
556
555
555
554
553
551
550
550
551
551
551
551
549
548
547
546
545
545
544
543
542
542
540
538
535
532
528
524
521
518
514
510
507
505
503
501
499
497
494
491
487
484
481
479
477
476
476
476
476
474
470
466
461
456
453
452
454
458
462
467
470
471
469
466
462
459
458
459
463
467
472
476
479
481
482
483
483
483
481
479
477
476
475
476
477
477
479
478
478
477
475
474
473
474
475
479
482
484
484
485
485
484
484
485
486
487
488
488
487
485
480
478
476
477
480
484
488
492
494
494
491
489
488
487
487
487
488
489
490
491
490
489
489
488
490
489
490
491
490
488
488
486
487
488
489
487
486
484
481
481
482
485
488
492
495
496
496
494
493
492
493
496
499
502
503
502
498
494
489
483
479
478
480
484
490
498
501
506
508
510
509
508
504
501
498
495
494
494
496
498
500
502
503
504
503
500
497
494
491
489
489
489
491
493
495
496
495
495
496
502
512
533
559
593
636
680
726
766
799
810
803
782
738
682
619
556
493
441
396
371
359
359
368
380
392
401
408
410
413
415
420
427
434
445
458
468
478
484
490
492
493
494
492
491
487
483
482
483
486
490
494
500
505
509
510
512
513
513
514
514
514
513
514
509
507
505
506
504
508
508
509
509
508
508
506
504
505
506
507
510
510
513
512
512
510
509
509
510
513
514
516
515
510
507
504
506
510
519
530
542
551
559
561
560
555
551
550
548
550
553
557
557
557
554
555
554
555
555
557
559
561
558
559
555
555
552
552
549
547
542
538
533
529
526
524
524
526
530
537
543
547
550
546
542
537
530
523
518
512
508
504
501
498
496
491
489
486
485
483
481
478
475
471
470
468
467
466
466
465
462
462
460
460
461
462
463
463
462
459
457
453
451
449
449
450
449
453
457
463
470
478
486
492
497
496
495
489
486
480
477
476
471
473
474
475
478
478
479
477
477
475
473
471
469
468
465
460
458
455
458
460
468
472
476
477
476
473
468
464
462
462
464
471
480
490
498
502
502
500
494
488
483
480
481
481
483
485
485
486
484
483
482
481
481
481
481
480
479
477
476
475
475
477
478
480
479
480
478
479
477
478
477
480
483
487
490
493
494
494
493
491
490
490
489
488
487
486
483
481
479
479
478
477
477
477
476
474
471
468
466
465
465
465
466
466
466
467
470
476
482
490
497
503
506
508
507
504
501
497
494
490
489
490
493
501
510
526
547
575
610
651
695
730
772
796
802
790
764
719
664
607
540
481
429
389
360
346
344
350
361
373
385
394
399
403
406
411
417
427
440
453
466
477
484
486
487
486
485
484
484
484
486
486
484
482
480
480
482
486
491
496
500
502
502
500
498
495
495
497
500
505
509
510
510
510
507
503
502
502
502
505
508
510
510
510
508
506
504
503
503
507
510
514
517
520
524
526
527
529
531
533
537
538
539
540
542
544
546
549
550
553
553
552
551
552
553
554
556
557
558
559
560
560
558
558
558
559
559
558
558
556
553
551
549
549
550
552
554
555
554
550
542
537
527
524
520
521
523
526
531
532
531
530
527
521
516
510
506
502
497
493
488
484
480
478
476
474
474
472
471
468
465
462
460
458
455
451
446
441
438
439
445
454
465
474
477
476
470
463
455
455
460
471
483
494
500
502
498
492
484
477
473
471
471
474
477
479
481
482
482
480
479
478
478
478
479
479
479
478
477
476
476
477
479
480
482
482
483
480
480
478
478
479
482
485
487
489
489
488
486
484
483
482
482
483
483
484
482
481
479
478
478
478
478
479
479
479
478
476
472
467
463
459
458
460
463
468
475
483
490
494
500
501
500
497
493
488
484
480
478
477
478
480
481
480
481
481
482
481
483
481
482
483
483
483
482
480
480
480
478
479
480
481
480
480
479
478
478
477
481
484
490
494
500
503
506
504
503
500
497
493
490
490
488
489
489
488
488
486
487
487
490
492
493
493
492
491
490
488
489
490
490
491
492
492
490
487
485
485
488
496
512
528
553
583
621
658
702
743
774
798
809
794
766
719
658
590
524
461
412
378
357
351
353
362
371
382
390
397
401
406
411
418
427
436
447
457
469
477
485
489
491
489
488
484
483
481
482
483
485
483
484
483
483
483
486
488
492
497
498
501
500
499
495
494
495
494
500
505
513
517
524
524
523
519
516
510
510
509
510
510
514
514
515
514
516
516
518
519
521
523
521
523
523
524
523
525
527
530
531
532
531
530
528
529
531
533
539
545
551
557
559
559
558
558
556
557
558
558
559
559
561
557
558
556
556
553
557
556
558
559
558
555
555
552
550
547
545
542
539
537
532
529
524
520
516
512
508
504
498
492
487
483
482
481
483
485
488
490
492
491
488
485
481
477
475
471
469
468
466
465
464
464
465
467
470
472
473
471
470
468
466
465
466
468
470
473
474
474
472
471
471
471
472
473
474
474
475
475
475
476
476
478
479
480
481
482
481
479
478
477
477
479
483
488
491
493
493
493
490
488
487
487
487
487
486
484
482
480
478
478
479
481
482
483
483
482
481
480
479
479
480
482
483
484
485
483
481
477
474
474
475
478
481
484
486
486
485
483
480
479
479
481
485
489
492
494
494
493
492
491
491
491
491
492
493
492
491
489
488
487
487
489
491
492
492
491
489
487
486
485
484
484
485
484
484
483
483
484
485
489
493
497
499
499
497
495
493
490
488
488
490
491
494
496
498
501
501
503
502
505
503
503
500
498
496
496
495
495
495
495
496
495
494
493
490
489
488
489
491
493
495
496
495
494
492
490
489
488
488
488
489
490
489
489
489
491
493
499
509
523
538
560
586
619
656
695
734
768
793
801
791
766
722
664
601
539
482
433
396
373
364
366
373
383
393
400
406
410
414
418
421
426
431
440
449
461
471
479
484
487
489
491
492
495
498
502
509
512
514
514
510
509
506
505
505
507
510
514
516
516
516
514
513
513
514
515
518
519
520
519
519
518
516
515
515
517
518
523
523
525
524
525
528
530
533
537
541
544
546
547
547
545
545
544
546
545
547
547
549
550
552
553
554
555
557
558
560
561
561
563
565
563
567
567
570
570
571
570
569
566
564
562
561
562
564
563
567
566
566
563
561
559
556
557
555
555
553
550
546
542
539
534
532
530
529
527
525
523
520
518
512
509
504
502
500
495
494
492
490
489
489
489
488
489
488
486
484
481
478
475
475
476
477
479
480
481
481
482
479
479
479
479
480
480
481
481
479
479
477
476
478
480
480
482
482
482
482
482
482
483
485
488
492
495
500
503
504
506
505
504
502
500
499
498
497
494
493
492
492
492
492
494
493
494
493
492
491
491
490
490
490
491
493
494
492
492
489
488
485
484
482
482
482
482
482
483
485
487
490
493
495
497
496
494
492
490
488
487
487
487
488
488
489
489
488
487
487
487
489
492
492
495
495
493
492
489
487
486
487
486
489
489
493
497
499
500
502
501
502
501
501
500
499
500
497
499
498
498
497
497
494
493
490
488
486
486
486
490
493
495
496
496
496
495
494
495
495
497
499
500
501
500
497
494
489
487
486
488
493
502
516
534
556
583
615
652
690
723
748
760
756
735
699
652
599
546
495
450
414
389
375
370
373
381
390
397
403
406
410
412
415
420
426
434
443
455
467
478
487
494
497
497
496
496
497
499
502
504
505
504
502
498
496
496
499
503
507
512
514
515
513
510
507
505
505
507
509
514
516
517
517
517
516
516
516
517
517
518
519
519
519
519
519
520
520
521
523
523
521
523
523
523
525
528
531
533
535
537
537
537
537
537
537
539
542
546
549
550
551
551
551
553
555
558
562
564
567
568
567
564
560
557
556
556
556
556
555
555
555
554
552
550
549
547
545
545
542
540
537
534
530
527
523
519
515
510
505
499
493
489
486
484
484
485
488
490
492
492
489
486
479
475
470
468
466
466
466
468
469
468
468
466
466
464
463
462
461
460
458
457
457
458
460
461
462
462
462
461
460
461
461
463
465
467
469
471
472
471
470
471
473
476
479
481
480
480
477
477
477
479
482
487
490
491
492
490
488
485
483
484
486
487
488
489
489
487
485
483
481
481
481
480
480
479
478
476
475
475
475
477
478
479
478
479
478
479
479
482
484
487
489
491
492
492
489
487
483
482
480
479
479
479
479
479
477
477
476
477
478
480
482
483
483
481
479
477
476
475
477
479
481
483
483
481
479
477
476
473
474
475
477
478
482
482
483
482
481
482
481
482
485
488
489
492
491
490
489
488
488
488
487
489
489
490
490
490
492
490
491
490
490
488
486
485
484
482
482
482
482
484
485
484
486
484
485
484
482
482
483
484
483
482
481
479
478
478
478
480
482
487
493
504
519
539
566
600
641
684
727
766
795
811
807
787
750
695
637
573
512
455
408
372
351
343
346
355
368
378
388
393
398
402
407
412
420
433
444
458
469
479
485
484
484
482
483
483
488
492
494
496
498
499
497
498
497
499
499
503
503
505
503
502
501
501
500
502
504
503
504
503
502
503
504
505
507
508
509
509
509
509
508
506
506
504
505
504
507
509
512
515
518
523
523
525
529
529
528
527
525
526
528
532
539
545
551
555
556
555
554
551
550
551
551
553
556
559
558
560
560
561
561
562
563
566
566
567
565
564
564
562
560
560
559
558
557
556
554
551
550
547
545
542
539
537
534
529
523
516
508
502
496
493
489
487
487
486
486
485
483
482
478
475
472
469
467
467
467
467
467
469
469
470
470
469
467
465
463
460
458
457
456
456
456
457
456
456
456
456
457
458
459
459
459
458
458
458
460
462
465
468
471
473
472
470
468
466
465
465
468
471
473
475
477
477
477
477
475
475
474
475
477
477
478
477
476
475
475
475
475
475
477
477
478
478
477
477
476
476
476
476
476
475
474
474
474
475
477
479
482
483
484
484
483
482
480
478
478
479
480
481
481
481
481
479
477
477
476
477
478
479
480
480
479
479
478
478
477
478
480
482
484
485
485
484
484
483
483
482
482
481
480
478
476
475
473
473
474
475
478
481
483
486
487
487
487
489
490
493
494
495
494
491
489
488
489
491
494
499
502
504
505
505
502
500
500
499
498
499
499
500
499
499
498
497
496
497
498
499
500
498
499
498
499
499
500
501
502
501
500
499
496
496
494
494
496
498
500
502
503
503
502
501
499
498
497
498
502
508
520
537
557
584
620
662
705
748
781
804
806
791
762
711
654
590
528
472
426
391
370
359
360
365
376
386
397
405
412
416
419
423
429
437
449
462
475
485
491
495
495
493
491
489
489
490
494
498
502
501
502
500
499
499
499
500
501
504
504
505
505
504
503
504
506
508
512
515
518
519
519
518
517
515
514
515
516
519
521
524
524
526
527
528
530
531
531
531
526
525
523
521
521
525
529
534
537
538
538
537
537
537
540
546
554
562
568
572
575
573
574
573
574
575
576
576
577
576
576
574
571
571
571
569
572
571
571
569
568
565
565
563
563
562
561
562
559
557
554
550
546
543
540
537
534
531
526
523
518
513
509
506
504
501
500
498
496
491
489
485
484
483
481
481
481
479
479
478
478
477
478
479
479
477
477
474
471
468
465
463
462
464
464
468
469
469
469
468
466
465
467
468
471
474
477
477
478
475
474
471
473
476
481
488
488
493
491
491
488
487
485
484
484
483
483
483
484
484
487
488
489
492
492
493
491
489
487
488
487
490
491
493
492
492
490
485
484
480
480
481
482
483
485
484
484
483
483
485
486
487
488
488
487
485
484
484
485
487
489
492
493
493
493
491
489
487
486
487
488
486
487
486
485
484
484
483
485
484
487
488
489
490
490
489
486
486
485
486
488
490
491
492
492
491
489
487
487
488
487
490
491
493
492
492
490
491
492
493
494
495
496
497
495
495
494
496
496
497
498
499
500
499
498
495
494
491
491
491
489
488
487
485
485
483
482
482
482
483
483
485
487
489
491
494
496
497
499
500
500
500
499
497
496
495
494
493
493
495
500
508
520
538
562
594
641
675
718
758
783
797
791
769
715
672
610
548
490
440
400
373
360
357
361
370
380
389
396
401
406
410
414
420
429
440
453
468
482
492
499
502
502
499
495
493
492
493
496
500
503
507
509
510
510
510
510
512
512
512
510
510
510
510
510
513
514
515
517
517
517
517
517
519
521
523
524
525
526
525
524
523
523
523
523
523
526
529
531
534
537
537
537
538
539
540
540
541
542
543
543
545
548
552
556
560
563
566
566
567
566
566
567
568
570
572
578
567
569
570
570
571
563
567
572
571
574
576
573
572
569
565
564
563
563
562
562
561
557
554
551
548
546
544
543
541
538
535
531
526
517
512
506
503
499
497
494
492
491
488
487
485
484
484
483
481
478
475
472
470
469
469
471
472
473
474
474
472
470
467
466
465
467
470
472
474
475
475
475
474
473
473
475
477
479
481
482
482
481
482
481
483
484
485
485
485
485
484
483
484
485
487
490
492
493
495
494
494
493
492
492
493
494
495
495
494
493
490
488
487
485
486
488
492
492
494
494
493
492
491
491
492
493
495
495
496
497
496
496
495
495
495
496
496
495
495
493
492
491
490
489
489
489
489
488
487
486
486
486
487
489
491
492
493
492
492
490
491
490
493
495
498
499
500
499
497
496
495
495
495
494
496
496
496
495
493
491
490
490
489
490
491
492
493
494
496
497
498
499
500
501
500
498
498
498
499
500
501
502
503
505
503
501
498
495
492
491
493
495
500
504
507
507
506
504
503
502
501
500
500
502
503
502
503
501
501
501
501
502
504
504
503
502
500
499
499
498
499
497
498
496
495
493
494
497
505
517
535
558
586
619
660
700
745
780
815
829
828
806
773
715
649
580
512
449
401
367
353
351
360
372
386
397
405
411
414
418
421
429
437
450
462
476
487
496
501
504
503
501
499
498
498
499
502
506
508
510
513
514
514
513
512
512
512
515
518
520
523
523
523
521
523
523
523
523
523
523
520
520
515
515
510
512
512
516
521
528
534
539
546
549
553
554
556
556
557
555
555
552
552
551
552
553
555
557
560
562
561
562
560
562
561
566
568
570
572
574
575
575
574
573
575
577
578
582
582
583
582
581
580
578
575
573
570
567
567
565
562
560
556
554
553
554
554
556
558
560
562
564
562
558
552
545
537
530
524
518
515
510
509
508
506
503
499
495
491
486
482
478
476
475
476
477
477
475
472
468
465
462
460
461
463
467
471
474
474
473
469
462
456
451
450
452
457
464
472
480
486
490
493
493
494
492
489
488
485
483
483
482
482
484
486
487
488
489
489
487
485
484
482
481
480
480
480
481
481
482
483
485
487
489
491
492
492
491
490
488
488
487
488
488
488
489
488
487
486
486
485
486
487
489
489
489
488
485
483
480
480
481
483
484
486
487
487
487
487
487
486
486
487
487
486
485
483
481
480
480
482
485
487
489
490
490
489
487
486
485
485
485
487
489
491
493
493
494
494
493
495
497
499
500
500
499
498
497
496
496
495
495
496
495
493
491
490
486
486
486
488
490
491
492
493
493
494
493
493
495
497
499
501
501
501
500
499
499
500
502
502
502
500
498
497
498
502
514
532
558
591
630
672
717
759
793
814
817
798
770
716
655
585
521
461
415
383
369
367
373
383
391
399
401
401
402
403
406
413
422
435
450
467
481
493
501
507
508
509
508
508
507
507
505
505
504
505
505
507
508
508
507
504
502
498
494
493
493
497
502
508
514
521
523
524
523
520
518
517
518
521
525
530
534
538
540
540
539
537
534
530
527
524
519
517
513
510
507
507
509
514
523
531
541
550
557
561
563
565
567
569
572
575
577
579
580
580
579
577
574
571
567
564
563
563
565
570
574
578
581
583
584
581
578
572
564
556
549
542
537
535
534
540
548
557
565
571
573
572
567
559
549
539
533
527
521
519
514
510
506
501
496
492
487
485
484
484
483
482
477
474
469
466
462
461
461
463
465
468
470
470
469
468
469
467
470
469
470
469
468
469
468
469
471
473
476
477
478
477
476
475
472
473
473
475
479
479
482
480
480
480
479
479
480
481
483
485
487
485
486
484
485
485
486
488
489
491
490
490
489
488
488
489
489
490
490
490
487
482
477
473
472
473
478
482
489
493
496
496
494
491
488
487
486
486
489
488
490
489
490
492
491
493
492
492
490
489
483
480
475
470
463
460
458
460
465
476
488
500
507
512
510
507
506
500
495
493
491
491
491
494
494
496
495
494
492
490
490
490
490
492
492
493
493
493
493
495
497
499
502
505
506
505
499
495
490
491
492
496
501
506
507
507
504
499
495
490
488
489
491
494
497
498
500
500
499
498
497
498
498
498
498
498
497
496
494
491
489
488
489
494
503
518
537
562
593
631
674
721
765
803
823
822
801
765
708
641
573
506
447
399
365
345
338
341
349
360
372
383
393
400
406
412
419
428
439
452
464
474
479
481
479
475
470
469
473
484
499
515
530
539
542
541
537
528
521
517
515
516
517
518
519
519
518
518
518
518
519
520
520
521
520
519
518
519
521
523
525
525
525
524
523
523
523
523
524
526
528
529
529
529
529
529
531
534
538
541
545
546
547
548
548
549
551
552
554
556
557
557
556
554
554
553
553
553
553
554
554
556
560
565
571
575
578
577
574
571
566
564
563
564
567
569
571
571
570
567
562
556
550
545
540
537
533
530
527
524
519
513
504
496
487
480
474
470
467
467
468
471
475
478
482
484
485
485
483
479
475
470
466
462
459
458
458
459
457
458
455
455
453
452
450
451
452
455
458
459
460
460
459
460
460
462
463
464
464
464
463
462
462
462
464
467
471
474
476
477
476
473
469
466
466
469
474
482
489
494
498
497
497
494
491
489
488
487
487
488
489
489
489
490
489
487
486
484
483
480
476
474
473
472
475
478
482
485
487
488
488
488
487
487
487
489
490
490
486
486
483
482
483
485
487
489
493
492
491
490
487
485
483
484
485
486
488
488
489
489
490
491
492
494
495
496
493
493
492
493
495
498
501
505
507
508
507
504
502
500
499
499
500
502
504
505
505
504
502
499
497
495
495
496
499
501
501
499
495
489
482
476
470
471
473
482
491
501
510
518
523
525
524
523
521
517
510
508
505
506
506
514
523
538
557
579
605
634
666
702
735
756
766
760
738
699
650
594
538
485
443
410
389
380
380
385
393
400
406
409
411
413
416
420
426
433
441
451
461
473
482
494
502
509
513
514
512
510
509
509
510
512
515
517
516
517
516
517
517
519
521
523
524
524
523
519
515
510
510
510
514
519
525
529
533
534
533
531
528
523
521
520
520
521
524
528
533
537
541
545
547
547
547
542
542
540
540
541
542
544
545
546
547
548
546
548
548
550
554
554
558
559
561
562
561
563
564
567
569
571
573
573
574
573
570
570
567
565
562
560
557
555
554
555
556
557
558
560
561
558
558
554
551
544
540
534
532
530
529
526
523
519
514
508
500
496
490
486
483
480
476
473
469
468
468
470
476
481
486
490
490
490
486
483
480
479
479
479
479
479
477
475
472
470
470
470
471
473
475
475
475
473
471
468
466
464
461
458
456
453
452
453
455
460
468
478
487
496
502
506
507
506
503
500
498
496
494
493
492
491
489
489
488
486
486
486
486
487
488
487
486
484
482
482
482
483
483
481
476
471
467
463
462
463
465
469
474
478
484
490
494
495
495
494
494
493
494
496
496
496
495
492
491
490
490
491
491
493
493
493
492
490
489
488
487
486
484
483
482
481
480
480
479
479
479
481
483
485
487
490
490
490
488
486
487
488
492
498
504
509
513
513
510
508
503
500
497
494
492
491
491
493
496
498
498
497
494
491
488
484
482
481
481
482
483
485
486
487
487
487
486
486
488
491
494
497
500
500
501
499
499
499
498
498
499
500
503
509
519
534
557
586
619
653
685
712
731
737
729
707
673
628
583
537
490
451
416
393
378
374
375
383
393
402
411
418
425
431
437
447
457
470
482
494
501
505
507
505
504
503
503
503
504
506
506
506
507
508
508
510
510
510
510
510
510
509
510
510
514
517
519
520
520
518
517
513
514
515
518
520
524
525
526
525
523
519
517
517
516
520
525
529
533
535
537
537
535
535
537
537
539
541
544
547
548
548
549
550
552
551
554
553
555
555
556
555
557
556
556
555
553
552
553
556
563
570
578
583
586
586
583
579
574
569
566
564
564
565
567
569
568
567
564
561
558
555
553
551
550
547
545
541
539
533
531
527
526
525
525
523
521
516
510
504
498
494
493
490
491
491
492
490
491
487
486
484
483
482
481
479
479
477
475
477
479
484
489
493
496
496
495
491
489
485
484
484
484
485
487
487
487
488
487
487
486
486
486
489
489
491
492
492
493
494
495
493
496
495
497
497
497
496
493
492
492
491
494
495
498
499
499
498
499
497
498
497
499
500
501
501
500
500
499
498
500
501
502
504
504
503
502
501
500
499
498
498
497
497
496
495
495
493
493
493
494
497
497
499
498
498
497
497
498
499
500
501
500
501
501
500
498
497
496
496
496
497
498
499
496
497
494
494
493
496
498
497
500
499
498
496
495
494
495
496
498
500
502
503
505
503
505
503
504
504
504
503
502
500
496
492
489
489
489
489
493
494
497
497
498
496
496
496
496
498
499
499
498
498
498
494
495
495
498
498
499
498
498
495
495
493
494
495
496
499
504
510
523
537
559
592
619
655
689
721
745
758
755
730
701
655
602
548
498
453
415
389
367
357
356
363
372
385
397
406
416
425
433
442
452
463
474
484
491
494
496
494
491
489
488
488
489
492
495
497
499
499
499
499
501
503
507
510
514
516
517
517
516
515
515
515
514
514
513
510
510
508
507
507
508
509
510
510
509
507
504
502
501
501
504
508
514
517
519
520
521
521
521
523
523
525
527
530
531
532
531
531
532
533
535
538
539
540
541
541
539
540
541
542
546
549
551
552
553
551
550
550
549
549
549
550
549
548
545
542
540
540
542
545
549
551
552
551
546
540
534
529
524
521
518
514
510
506
502
497
492
489
486
483
479
475
470
465
459
453
447
442
439
438
441
446
452
456
456
454
449
443
438
435
434
436
439
442
445
447
449
450
451
451
448
445
441
438
436
436
437
438
439
441
441
441
440
439
438
435
434
433
434
435
438
442
447
451
454
455
455
455
453
452
452
452
452
452
453
454
456
458
460
463
466
468
469
469
467
466
466
467
467
468
468
467
467
466
466
466
466
467
466
467
466
466
465
465
465
465
465
464
464
465
466
465
464
462
461
460
461
461
462
463
465
467
469
471
473
474
474
476
475
475
475
474
474
474
473
473
471
470
467
465
462
460
460
461
463
466
469
472
475
476
476
476
474
475
475
478
480
483
484
484
483
481
479
478
478
479
481
482
483
481
478
475
473
472
474
477
483
487
491
491
490
486
485
483
484
484
487
488
490
490
490
489
487
486
487
487
486
485
482
481
480
481
481
483
484
487
491
499
513
532
556
592
632
680
727
771
803
818
811
787
740
680
614
547
480
424
378
348
333
330
336
348
361
374
383
390
396
402
410
418
431
445
461
474
486
492
495
492
488
484
480
481
484
486
493
498
504
507
508
509
508
508
506
505
506
505
507
508
510
512
514
515
517
517
517
515
515
514
515
516
518
520
523
523
523
520
518
515
513
514
516
520
526
527
530
529
528
527
528
534
540
549
558
564
567
564
562
557
555
556
556
561
564
567
571
572
574
576
579
580
582
582
583
582
582
582
579
580
578
578
578
579
577
578
578
579
580
581
584
583
579
577
572
566
561
558
555
552
550
548
546
542
539
537
529
526
521
518
514
510
505
502
497
494
490
488
488
487
488
487
485
483
479
477
475
473
473
474
475
476
477
477
477
477
477
477
478
480
480
482
482
482
479
478
477
477
477
479
482
483
485
484
484
484
483
484
486
488
489
491
493
493
494
493
494
494
494
496
496
496
496
494
493
493
493
494
496
496
497
497
496
495
493
492
492
493
493
494
495
495
494
494
492
492
492
493
494
495
495
495
493
491
489
489
489
490
491
491
492
492
491
490
490
489
489
490
490
491
491
491
490
489
487
486
486
486
486
486
486
484
482
481
481
483
486
489
492
494
495
494
493
493
494
496
498
499
500
499
499
497
496
497
498
500
503
505
507
507
506
504
500
497
494
491
490
487
484
481
479
478
480
483
487
492
495
496
494
492
489
486
484
486
489
494
499
502
504
502
500
497
495
494
495
496
499
500
500
498
495
490
488
489
495
506
526
545
571
603
638
677
717
754
785
798
795
779
737
682
617
549
474
431
391
367
358
361
369
379
386
391
393
394
397
403
408
418
427
441
454
468
482
493
503
508
510
510
509
506
504
504
503
506
509
510
512
513
513
512
512
510
510
510
513
514
515
514
513
510
510
509
510
514
518
523
527
529
529
529
525
525
523
526
529
533
535
537
537
535
534
533
534
534
537
538
539
542
545
546
548
549
551
553
554
555
556
556
557
557
559
561
564
567
566
568
566
566
565
567
567
569
569
569
567
566
567
565
564
563
560
555
549
541
534
528
530
537
549
565
578
587
589
582
573
560
548
537
528
524
523
523
521
518
515
510
503
495
490
486
486
486
489
491
493
493
491
487
484
480
474
472
469
467
467
467
464
465
464
465
466
467
467
468
468
470
469
471
473
475
477
476
477
474
474
471
470
470
472
474
477
479
480
481
480
478
478
478
479
479
482
481
482
482
481
479
477
475
475
477
478
480
481
482
481
481
481
483
487
492
497
501
503
501
496
492
487
484
484
485
487
489
490
490
489
486
485
483
481
480
478
476
474
476
476
480
484
487
489
486
480
471
461
453
452
456
467
483
499
514
519
523
517
514
505
503
498
498
499
499
501
498
498
494
493
493
490
492
490
490
488
487
484
483
482
482
483
484
485
484
481
480
479
480
481
483
486
488
489
490
488
486
485
484
483
486
487
490
490
491
489
490
489
494
502
517
537
562
593
621
656
683
708
718
720
704
676
636
585
534
484
440
405
383
375
376
385
396
407
414
417
418
416
415
416
419
425
433
441
450
460
469
478
487
493
498
498
498
495
494
492
493
493
495
496
496
497
497
497
495
493
493
493
495
497
500
502
504
504
506
506
507
508
510
512
514
514
513
512
510
509
510
512
515
518
523
524
525
524
523
521
519
518
519
521
524
528
531
533
535
537
539
539
540
540
539
539
539
540
543
547
551
555
559
562
563
564
563
561
560
558
558
558
559
560
560
561
561
561
560
561
559
558
558
558
556
553
549
544
540
537
533
531
529
527
525
523
519
516
510
508
505
503
501
499
498
497
495
493
492
491
490
490
489
487
485
482
479
477
475
475
474
474
472
470
468
466
464
464
465
467
470
471
472
471
469
468
467
469
472
475
478
479
479
478
476
473
472
472
473
475
477
478
478
478
477
477
478
479
481
484
486
486
486
486
485
484
484
485
484
487
488
488
487
485
483
482
481
482
483
484
485
485
485
483
483
482
481
483
482
485
485
484
485
483
484
483
485
486
487
487
487
486
484
482
480
481
482
484
485
485
485
484
484
484
485
485
486
488
490
491
493
494
495
496
498
501
503
504
505
504
503
502
500
500
498
499
499
500
500
499
498
497
494
494
492
491
491
494
495
494
494
493
492
492
493
494
496
498
501
502
503
501
500
497
496
495
496
496
498
496
497
498
503
510
526
545
570
601
634
669
703
734
758
770
766
749
716
672
620
567
515
469
430
402
383
377
378
383
393
401
407
413
420
428
434
446
456
468
480
490
496
502
504
506
506
506
508
507
507
508
508
510
512
514
515
515
516
514
514
512
512
512
512
514
517
520
523
523
523
523
523
523
525
524
529
528
531
529
529
527
527
527
528
529
531
532
534
535
537
534
538
537
542
544
547
548
549
550
551
552
554
556
559
563
563
567
567
566
566
566
566
567
570
573
575
577
577
576
573
570
568
565
564
565
565
567
570
573
577
580
583
586
588
587
586
583
579
574
571
566
566
563
562
559
557
553
549
544
540
535
532
530
529
525
523
518
514
510
506
505
505
505
507
506
505
503
500
495
494
492
494
494
496
497
497
495
493
490
488
489
489
487
487
485
483
481
480
480
483
486
490
493
495
496
495
492
490
488
488
489
491
494
497
498
497
494
493
489
487
483
483
482
481
481
483
487
494
500
505
508
509
509
504
501
496
496
497
499
501
503
503
503
501
499
496
493
492
492
494
497
499
500
500
499
497
496
495
495
495
496
499
499
500
498
497
496
495
495
495
496
497
497
498
500
502
502
505
505
508
505
506
503
502
500
500
499
499
500
502
502
500
498
494
490
488
487
489
491
495
497
498
496
493
491
489
488
487
488
490
492
494
495
496
497
496
496
498
498
499
499
498
496
494
495
499
509
524
544
567
596
629
662
693
719
734
738
728
703
666
620
571
523
476
436
404
381
368
363
363
369
376
385
394
405
416
427
439
449
460
469
476
481
485
488
490
492
493
493
494
495
495
494
494
495
499
502
506
509
509
509
507
505
503
502
502
504
505
508
509
510
510
510
509
509
509
510
509
508
509
509
510
513
515
517
519
521
521
523
520
519
519
520
521
524
527
529
530
530
529
528
529
530
531
534
537
539
540
541
543
545
547
549
551
553
554
555
555
554
554
554
555
556
557
558
559
560
559
558
556
555
554
554
555
557
558
558
557
555
553
551
549
547
547
544
545
542
541
537
534
530
526
523
518
515
510
506
502
497
493
491
488
488
487
486
486
485
484
482
480
478
478
477
476
476
476
476
476
476
476
476
475
475
475
474
474
473
471
469
468
467
468
471
473
476
475
476
475
475
474
474
475
477
478
480
480
479
480
478
477
476
476
476
477
479
480
482
483
484
484
485
486
487
489
489
488
488
488
489
489
493
493
496
496
495
493
491
488
487
486
486
488
488
487
487
485
484
481
480
480
481
483
485
487
489
490
491
491
492
492
494
494
496
496
495
493
492
491
493
494
498
498
500
498
497
495
494
492
491
492
491
492
491
492
491
491
491
488
488
487
486
486
487
486
485
485
485
485
486
486
485
484
483
479
480
479
482
485
491
494
498
499
499
498
493
492
489
489
490
491
498
507
518
537
556
583
612
646
676
700
723
731
725
703
670
630
586
544
496
455
420
392
372
362
361
367
377
390
402
411
418
424
429
435
440
450
459
469
478
485
490
493
493
492
491
490
493
494
497
496
497
495
494
493
494
497
503
507
512
513
512
509
506
502
501
499
501
501
504
504
506
506
507
509
510
512
515
517
516
516
514
513
510
512
513
515
518
519
523
521
521
520
523
523
527
526
529
528
529
528
528
528
530
533
537
540
544
546
549
549
549
550
552
553
555
556
557
558
558
558
557
555
555
555
555
556
557
557
556
553
551
550
549
550
547
547
545
545
543
543
542
541
538
535
530
526
521
518
510
507
503
501
499
498
496
494
491
489
485
482
479
478
476
476
476
477
476
475
473
473
471
470
468
467
469
469
470
472
474
477
479
481
482
482
480
478
474
470
465
464
465
467
472
477
481
483
482
480
478
476
475
476
478
481
484
486
487
487
486
485
485
484
483
483
482
481
480
479
478
478
479
481
483
487
490
494
498
501
503
503
502
501
499
497
493
490
488
485
484
484
484
484
483
483
483
483
484
484
485
485
486
488
488
489
489
488
486
485
483
482
482
484
487
491
495
496
496
492
490
487
484
483
484
483
483
482
481
481
481
482
484
485
485
482
481
479
479
479
480
480
480
480
479
479
480
481
484
487
489
491
491
490
488
486
483
482
482
483
485
486
486
484
482
483
489
499
516
538
565
595
625
653
678
696
706
702
684
654
615
570
526
483
444
412
388
375
369
373
380
389
398
405
409
411
414
418
423
431
440
450
460
469
477
481
486
487
488
488
489
490
491
493
493
494
495
495
497
498
498
497
497
497
499
501
504
507
510
510
510
508
503
500
496
495
496
498
501
503
506
507
508
508
508
507
507
508
510
510
512
512
513
513
513
515
519
519
524
525
529
529
529
529
529
529
532
532
535
535
539
540
539
539
538
538
540
542
546
547
548
549
548
546
545
545
546
548
551
553
555
555
556
553
553
550
549
547
546
543
541
537
534
532
528
529
527
525
524
521
518
514
510
509
507
504
502
499
497
495
492
489
486
484
482
482
481
481
481
479
477
474
472
470
469
471
468
468
466
465
463
462
462
463
465
466
468
469
471
472
470
471
469
470
468
471
472
474
475
474
473
472
470
471
472
475
475
478
477
479
478
478
481
482
485
488
490
491
488
486
483
482
482
480
481
482
484
486
485
483
482
481
481
483
485
487
488
489
489
487
486
485
484
485
486
489
488
489
487
486
486
483
484
483
484
484
484
482
479
477
476
474
477
478
481
483
485
485
486
484
483
482
484
487
491
494
498
498
498
495
493
490
489
487
488
488
489
489
490
491
489
491
491
491
490
490
486
485
483
483
483
484
487
490
489
489
487
486
483
483
483
485
486
487
487
486
485
484
484
485
486
488
489
489
491
495
502
515
534
558
588
619
653
686
717
738
748
741
719
684
636
586
532
483
438
402
375
359
354
356
364
373
383
394
402
409
417
424
435
446
460
472
481
489
494
494
493
492
491
492
495
499
500
502
501
501
500
499
498
499
500
502
502
503
503
502
499
498
497
498
497
498
497
497
496
496
495
496
497
498
500
503
505
506
508
510
513
516
519
523
524
526
527
528
527
528
527
528
530
530
531
531
531
532
533
535
537
541
542
544
545
547
548
550
551
554
556
559
560
562
565
568
570
572
574
577
579
582
583
583
581
578
575
572
570
568
568
566
565
564
562
560
557
553
550
546
542
539
537
533
530
526
523
517
514
510
509
507
506
503
501
497
494
489
486
483
481
480
479
478
476
474
472
470
469
468
467
470
472
474
475
476
476
476
476
476
477
478
478
478
478
477
476
476
476
477
477
478
479
480
479
479
478
478
479
481
482
484
485
485
485
486
487
489
492
493
495
495
496
495
494
494
494
493
494
494
495
494
494
493
493
493
495
497
499
501
501
501
501
499
498
498
498
499
501
503
503
503
502
500
498
496
495
495
495
496
495
495
495
491
492
491
491
492
494
496
497
498
497
497
495
495
496
498
502
506
510
510
512
512
512
512
512
513
513
514
515
516
516
517
518
519
519
520
521
521
520
518
517
516
516
514
513
510
507
503
500
496
492
491
491
494
499
506
510
517
519
523
523
524
525
525
526
523
523
519
517
514
514
516
521
532
550
568
595
626
661
698
736
769
796
801
793
768
723
667
607
547
485
446
412
390
380
380
383
392
399
408
414
421
427
435
444
453
461
473
485
495
505
512
516
517
518
516
516
516
516
517
520
523
525
528
529
530
529
528
529
530
531
534
537
540
543
544
543
540
538
534
534
534
537
538
540
540
541
541
540
540
540
542
544
544
547
547
550
552
554
557
560
561
562
560
559
559
557
557
559
561
564
567
569
571
572
572
571
571
572
573
576
579
582
584
585
586
587
586
588
588
591
592
594
595
593
591
590
587
587
586
586
585
584
582
580
578
577
575
574
570
570
566
564
560
556
552
549
545
543
542
541
538
535
530
526
520
517
512
510
509
507
503
499
493
489
486
480
481
482
486
490
493
496
498
496
496
493
492
491
492
493
491
492
490
490
488
487
485
484
483
483
482
482
483
483
483
485
486
488
490
491
492
492
492
492
492
494
497
500
504
506
507
506
504
504
501
504
504
506
506
507
506
506
503
504
504
504
505
507
509
507
510
510
510
510
510
510
512
512
510
508
505
503
502
499
498
496
493
491
489
489
491
496
502
509
515
520
523
521
519
513
510
507
507
505
507
506
508
508
507
507
504
505
502
504
507
505
509
508
509
508
507
507
509
512
515
518
518
518
516
513
510
509
509
509
510
510
513
514
513
512
510
510
510
509
510
510
510
509
508
506
505
504
505
506
508
509
510
510
510
509
509
509
510
510
512
513
513
513
513
512
510
510
516
524
538
557
581
610
646
685
728
766
799
816
814
794
757
705
643
580
520
468
425
394
375
367
368
374
383
394
404
413
421
429
437
445
455
464
476
486
495
503
507
509
509
508
506
504
505
505
508
510
513
517
517
517
516
515
514
514
515
516
517
518
517
516
513
508
504
502
501
503
507
514
521
528
533
538
540
541
541
540
537
537
535
535
537
537
539
541
541
542
543
543
543
542
541
542
543
546
549
554
557
559
561
562
563
565
566
568
569
571
573
574
575
576
576
577
577
579
580
579
579
578
578
577
578
580
581
583
585
585
586
583
581
577
577
577
578
577
577
573
567
561
554
550
545
543
543
541
540
537
533
529
525
521
516
513
510
509
508
506
504
502
500
498
497
497
498
498
498
495
493
491
490
490
489
491
492
494
494
495
494
493
491
489
488
487
487
489
489
490
492
493
494
496
497
498
498
498
498
497
497
497
498
498
499
499
500
500
498
498
494
493
492
490
493
493
496
497
499
499
499
498
496
493
491
487
485
484
484
487
494
503
514
523
530
532
529
524
517
510
507
505
505
507
509
512
513
512
510
509
508
508
508
509
510
510
510
509
508
507
506
507
505
506
505
506
504
502
498
497
495
496
498
501
505
508
509
510
509
508
507
506
507
509
512
513
514
513
512
512
513
512
513
512
510
509
505
505
501
501
498
500
500
502
503
503
502
500
498
498
498
497
501
502
505
505
505
505
506
509
512
513
515
516
516
512
510
507
506
503
502
502
507
512
524
539
561
587
621
661
700
745
779
813
824
818
794
755
698
632
564
498
442
397
365
350
348
355
365
379
388
397
402
406
410
414
420
430
444
458
474
487
500
506
509
508
508
507
508
509
510
514
516
517
519
519
520
521
523
526
529
531
532
531
529
527
526
527
528
530
533
535
537
539
538
538
538
538
540
540
544
545
545
546
544
545
544
545
544
546
547
548
549
551
551
555
556
559
561
564
565
567
567
568
567
568
571
574
574
577
578
578
578
578
578
582
582
587
588
590
590
590
591
589
591
590
591
591
591
590
591
589
587
584
582
581
581
580
580
578
576
571
567
562
559
554
550
547
545
545
543
542
540
537
533
529
525
520
516
510
506
502
498
495
492
491
489
488
487
485
484
482
480
479
478
477
477
477
476
475
475
475
476
478
480
482
483
484
484
483
482
480
480
481
484
488
491
493
494
493
492
491
490
491
492
493
494
496
496
496
496
495
495
497
499
501
502
502
502
501
500
499
499
500
500
500
500
499
497
497
496
497
497
498
499
501
499
498
497
495
494
493
494
496
497
498
498
498
496
495
493
492
492
492
492
492
492
491
490
488
487
487
489
491
492
492
492
492
491
492
492
495
498
501
504
506
506
505
504
503
504
506
508
509
510
513
512
509
506
504
502
503
504
505
506
507
507
506
506
505
504
503
503
502
501
500
500
500
500
501
501
500
499
498
496
496
496
495
496
496
497
498
499
501
502
503
503
502
502
503
509
519
533
554
581
614
652
693
736
774
807
823
820
803
749
696
634
569
503
442
398
365
349
343
347
355
366
375
382
389
394
400
405
411
421
432
446
463
478
492
502
508
510
509
507
504
502
501
502
504
507
509
512
514
516
518
519
518
518
521
523
524
525
525
524
523
523
524
524
526
527
529
528
527
526
526
526
528
529
531
534
535
537
538
538
540
540
541
542
544
546
547
547
547
547
549
550
552
556
558
562
564
564
564
563
564
563
565
567
571
574
577
580
580
581
582
580
581
582
582
585
586
587
586
584
585
582
584
582
583
580
579
576
573
570
569
568
567
567
565
563
559
556
552
547
543
539
537
535
534
531
526
521
516
510
504
501
498
496
496
495
492
490
487
484
481
480
479
477
477
474
475
472
473
473
476
478
478
480
478
478
478
476
478
478
481
482
484
485
486
486
486
487
486
487
488
490
490
492
492
492
491
490
491
490
492
493
497
501
500
503
501
501
498
498
497
497
499
498
499
497
495
493
492
494
493
496
496
498
498
498
496
496
495
495
495
497
499
499
498
496
494
492
489
488
488
488
489
489
489
488
487
486
487
488
490
491
492
493
491
492
490
492
492
494
494
494
496
496
496
496
495
495
495
496
495
497
497
499
498
498
498
497
498
500
502
503
503
503
503
503
501
502
500
503
501
501
498
497
494
491
490
490
489
492
494
493
494
493
491
489
489
490
494
494
497
495
497
495
495
497
495
498
497
498
497
498
501
510
523
543
569
604
646
690
732
772
797
809
799
779
731
677
613
548
484
427
383
351
335
332
338
348
359
368
374
378
379
383
389
399
411
426
444
461
478
490
499
503
504
503
502
501
502
503
504
506
507
509
510
510
513
515
515
515
515
516
517
518
518
518
518
518
518
517
517
517
517
518
519
521
523
523
525
526
527
528
529
530
532
534
535
537
537
537
537
535
537
537
539
541
542
543
544
545
544
545
546
549
553
558
562
565
567
567
567
569
570
573
576
579
582
584
585
585
583
582
581
581
581
580
579
577
575
574
572
573
573
573
573
573
572
569
566
563
560
557
555
554
550
548
542
537
530
524
518
513
510
509
507
505
501
497
493
488
486
483
481
479
477
476
474
472
469
467
464
462
462
463
463
463
462
459
457
455
455
455
456
457
459
460
461
460
459
458
458
457
459
462
465
469
471
473
474
474
474
475
476
478
478
478
479
479
480
481
482
484
485
486
486
485
484
482
480
481
479
481
481
482
482
482
482
482
480
481
481
482
484
483
483
482
480
479
477
477
477
478
479
478
478
477
477
477
479
481
483
485
485
485
484
483
482
482
482
482
484
485
486
485
485
481
482
480
482
483
485
486
486
487
487
486
487
487
489
491
493
494
494
493
492
492
492
494
495
497
498
497
495
493
490
488
486
485
485
485
486
485
484
484
482
483
479
483
482
485
485
486
487
488
490
490
490
489
488
487
484
480
476
472
470
472
477
488
502
521
544
571
602
638
677
718
756
784
803
799
781
738
682
616
549
485
428
385
355
341
339
345
354
364
370
376
377
379
381
385
391
397
408
418
432
446
458
467
473
476
477
478
479
483
487
492
496
495
496
493
491
488
490
492
498
506
513
518
520
520
518
516
510
508
506
507
508
510
513
515
515
515
514
514
516
517
517
518
517
517
515
514
514
514
514
513
513
510
512
509
509
510
508
512
515
523
531
540
547
553
558
561
562
562
562
561
561
562
561
562
562
562
565
565
567
567
566
566
564
563
561
560
559
559
560
561
561
561
560
559
558
554
554
553
553
551
548
542
539
534
530
525
521
517
514
510
505
502
497
495
490
489
488
487
486
485
483
482
481
479
476
476
474
472
468
465
459
456
452
452
453
457
463
470
471
474
472
469
462
457
452
450
451
456
462
471
480
489
492
495
492
490
485
482
478
476
476
476
478
479
481
483
485
484
484
482
481
479
478
478
478
482
483
486
486
487
487
485
485
485
485
487
488
488
488
488
487
486
486
487
488
488
489
489
487
485
483
479
475
471
469
467
467
469
472
476
479
482
484
487
490
494
497
499
500
499
499
498
498
498
499
500
500
499
497
494
491
489
489
490
490
491
491
490
489
488
488
490
490
493
494
496
495
494
490
485
479
473
463
456
451
453
460
473
490
507
519
527
528
523
515
507
500
496
494
494
495
497
499
504
510
519
532
549
571
597
628
659
691
719
737
739
726
697
659
613
564
516
474
436
408
390
381
380
386
395
403
409
414
417
419
421
424
429
436
444
455
466
477
487
493
495
495
494
494
497
501
508
515
520
521
523
520
517
515
514
515
518
521
523
523
521
519
518
517
517
518
518
518
518
517
518
519
520
524
525
528
529
530
530
529
529
529
530
533
533
537
537
537
537
535
535
537
538
541
544
546
548
548
548
546
546
546
547
549
554
555
560
562
563
567
567
569
570
573
573
575
571
571
566
566
564
562
563
563
564
568
570
572
572
572
572
571
568
565
561
557
553
550
547
545
542
540
537
534
532
530
526
521
517
513
510
506
504
501
499
497
493
489
487
485
484
484
484
485
485
484
483
481
480
479
479
481
482
483
482
481
479
477
475
475
475
476
478
480
481
479
479
476
475
473
474
475
478
480
482
483
483
485
487
488
490
491
491
491
492
490
490
490
491
491
492
494
495
494
493
492
491
490
490
490
492
492
493
491
490
489
488
490
489
492
494
497
498
498
497
496
493
492
490
489
488
488
489
486
484
482
480
479
479
480
481
482
484
485
486
488
489
491
494
493
495
492
491
487
486
483
484
487
491
495
498
498
497
496
494
491
491
490
491
492
492
493
494
495
493
494
493
493
493
494
494
491
493
489
491
490
493
493
493
493
491
492
489
488
487
489
490
490
496
494
497
493
491
486
484
484
489
499
513
533
559
587
620
657
687
725
753
769
771
755
724
679
629
569
514
464
423
391
370
360
360
363
371
378
385
390
396
401
409
418
427
438
450
465
476
487
492
498
498
498
494
492
491
492
492
496
498
501
502
504
505
504
505
504
505
506
508
510
513
513
513
512
510
510
512
512
514
514
515
515
515
514
514
514
515
515
517
520
523
523
524
523
525
524
526
528
531
532
532
530
529
531
531
532
535
537
539
541
542
544
545
547
550
552
555
559
562
564
565
565
566
567
569
571
573
576
574
575
573
573
572
572
572
571
572
571
571
569
567
565
564
564
563
561
560
557
554
550
547
542
537
533
530
527
524
521
517
513
507
502
498
494
491
488
486
483
481
478
477
476
475
475
475
476
476
477
476
475
473
472
471
473
474
475
476
476
476
476
475
475
474
473
473
473
473
472
473
472
472
473
475
477
479
481
482
482
481
480
481
481
483
484
485
486
487
487
487
486
486
487
488
489
488
488
487
486
485
484
486
488
489
490
491
491
491
491
491
491
492
494
495
496
497
496
496
494
493
491
490
490
489
489
489
489
489
488
487
487
487
488
489
489
490
490
489
488
487
488
488
489
491
492
492
493
493
494
495
496
496
496
494
493
491
489
489
490
492
494
496
497
498
499
498
498
496
496
496
496
496
497
499
498
497
495
493
492
491
491
491
491
490
489
489
489
489
490
490
492
494
496
498
498
498
498
496
496
496
499
500
501
502
502
499
497
495
497
505
516
537
562
591
628
666
706
745
774
795
797
783
749
700
642
580
520
465
420
385
362
352
350
355
362
369
377
383
388
396
405
417
429
444
456
469
476
484
489
492
495
493
493
493
494
497
500
503
506
508
508
507
505
501
499
499
499
501
503
505
507
508
508
504
503
501
502
502
504
505
508
509
510
512
514
515
517
519
521
523
523
523
521
519
519
520
523
524
525
526
525
524
523
523
521
523
525
529
535
540
546
547
552
553
554
555
555
558
559
561
562
562
563
563
563
564
565
566
567
567
567
568
567
567
566
566
568
566
568
566
566
562
561
558
556
554
552
551
548
548
545
541
538
534
532
528
525
520
516
509
503
496
491
489
487
484
484
481
479
475
474
473
474
475
477
479
478
477
472
462
453
444
440
440
446
456
469
478
484
483
480
476
469
466
464
464
467
470
474
476
476
475
474
472
472
473
474
474
474
473
473
471
472
471
473
474
474
473
471
468
465
461
459
459
460
463
467
469
473
474
477
479
483
487
491
494
495
495
493
489
484
482
480
476
476
476
478
479
480
479
478
479
478
477
478
477
476
474
473
473
470
474
475
478
480
482
481
479
476
474
472
471
471
471
470
470
471
471
474
475
480
482
484
484
479
474
467
461
458
460
467
473
487
496
505
506
505
497
489
481
476
472
473
474
478
480
482
484
485
486
486
485
484
483
483
483
482
483
484
485
486
487
487
487
484
482
477
477
475
476
476
477
477
478
477
478
477
478
480
482
482
485
486
487
486
485
484
483
481
484
488
499
514
534
559
593
630
671
713
750
775
784
777
744
696
637
576
518
468
425
393
372
359
356
357
364
373
383
393
402
412
421
430
438
448
457
467
475
483
489
493
496
496
495
495
493
493
494
495
497
498
499
498
497
496
495
494
495
497
499
500
500
497
495
492
491
493
498
503
510
518
520
520
519
516
515
514
514
515
518
519
519
519
518
517
518
518
523
525
527
529
529
529
528
527
527
527
528
530
532
535
538
542
546
548
549
550
549
549
549
548
548
548
549
552
555
558
562
564
566
567
567
568
569
570
571
573
574
576
576
576
574
571
567
561
556
551
547
545
543
543
543
541
540
537
532
528
525
524
523
524
523
520
516
509
504
498
493
489
487
484
483
484
485
487
489
490
489
488
487
485
484
483
483
484
485
486
487
487
485
483
481
479
478
477
477
476
477
478
479
481
483
484
489
491
494
496
497
496
496
495
494
493
492
493
494
495
496
496
496
496
496
496
496
497
497
497
496
495
493
493
492
491
490
491
490
489
488
486
486
487
489
492
493
496
496
497
493
489
485
482
478
479
479
481
482
485
485
483
482
482
485
489
493
497
499
500
499
497
496
494
494
495
496
496
495
493
492
488
488
486
487
488
489
489
490
488
488
487
488
491
493
495
497
495
493
490
489
489
491
495
499
503
505
506
505
503
500
498
496
496
496
497
497
496
494
493
491
489
488
488
490
489
491
490
490
489
487
486
487
490
492
494
497
497
495
492
491
490
491
491
493
494
496
497
497
495
495
498
501
510
524
542
566
602
627
664
699
731
754
764
760
741
702
651
599
542
492
449
416
392
382
381
386
394
401
405
409
411
413
415
419
425
431
438
448
457
468
481
492
502
508
510
513
512
510
509
509
509
509
510
510
512
512
514
513
515
516
519
523
524
525
528
528
528
528
528
529
529
528
530
528
529
527
527
526
527
528
529
529
530
529
527
527
527
527
530
534
540
544
547
547
548
544
545
544
546
547
550
554
554
556
555
557
555
555
555
556
557
559
560
562
562
563
561
562
563
565
570
569
571
570
572
569
569
568
568
569
568
568
567
565
563
561
559
557
556
554
553
550
546
541
537
532
529
526
525
523
521
516
513
507
504
501
499
497
496
493
490
486
483
481
480
477
478
477
479
477
478
475
474
472
470
469
468
468
470
472
471
475
476
478
478
479
479
479
479
478
476
474
472
471
471
472
472
472
471
469
468
468
468
469
473
477
482
486
489
492
492
491
490
488
487
487
489
490
490
490
489
487
486
484
484
483
484
485
485
484
483
482
481
480
479
481
482
484
487
490
489
490
488
487
487
487
488
488
487
488
488
488
489
491
492
493
493
491
489
487
485
482
481
481
482
483
484
485
485
483
483
483
484
485
487
488
488
488
487
485
485
485
486
488
491
493
493
492
491
489
488
488
489
491
493
495
496
495
494
492
492
490
490
489
490
490
490
490
489
489
487
487
487
487
488
488
487
486
485
485
485
486
487
489
491
493
495
494
494
494
496
501
510
526
547
572
604
642
678
716
748
770
779
768
738
692
639
582
525
474
430
397
376
366
366
371
379
388
396
402
407
413
418
424
431
439
448
459
470
482
489
494
497
497
495
493
492
490
491
492
494
498
500
502
504
505
503
503
503
503
503
505
506
509
510
509
506
503
500
501
503
506
510
515
519
521
521
520
518
517
516
516
517
518
520
521
523
524
524
527
527
530
532
532
532
532
531
532
533
535
537
538
540
538
539
540
541
543
545
547
550
551
552
553
554
555
557
558
561
563
564
565
565
565
562
561
560
561
562
564
564
564
563
561
558
555
554
551
549
548
545
544
541
538
537
532
529
527
524
523
523
519
515
510
506
501
497
495
492
490
488
486
484
481
478
475
474
474
475
476
476
477
476
475
473
473
473
473
475
475
475
474
473
471
469
469
469
470
472
474
475
476
475
473
473
472
475
476
478
481
482
480
482
481
482
482
482
482
482
482
484
483
484
483
484
486
486
488
489
489
487
485
482
480
479
480
483
486
489
490
491
491
490
490
490
490
492
491
492
490
490
488
488
488
490
489
490
490
488
486
485
483
481
483
484
486
488
489
489
489
486
485
482
481
482
484
486
490
492
494
493
491
487
486
482
483
483
486
488
493
496
495
497
494
494
493
492
490
490
489
490
491
493
493
495
497
494
494
490
489
486
486
487
488
490
491
490
488
486
483
483
483
483
485
485
485
484
482
482
481
481
482
482
483
485
489
498
510
529
554
581
616
653
691
726
753
766
760
737
698
648
593
537
485
440
399
378
363
359
361
370
378
388
397
402
407
409
414
419
427
437
448
461
473
482
487
490
488
486
484
482
483
485
489
493
497
500
500
498
497
497
494
497
498
500
498
496
493
490
489
491
495
500
508
514
517
519
518
516
513
509
508
508
509
509
509
508
507
506
506
508
509
510
513
514
514
515
516
517
519
521
523
525
526
527
528
527
526
526
527
529
533
537
542
547
552
557
561
564
565
564
563
561
558
556
554
552
551
551
551
552
551
550
548
546
544
541
537
532
525
520
517
518
524
533
543
553
561
563
561
556
548
539
530
523
516
510
509
507
505
503
500
494
490
485
480
477
475
474
475
477
477
477
476
474
472
470
469
467
466
464
462
461
460
460
461
464
466
471
476
480
485
487
488
488
487
486
483
482
480
477
474
473
473
475
480
484
487
488
488
486
483
481
480
482
484
488
491
492
494
493
493
492
492
492
493
493
492
492
491
491
490
490
490
490
492
494
496
497
496
494
492
490
488
487
486
486
487
486
486
483
484
481
481
480
482
483
486
489
491
491
490
491
489
489
489
489
489
489
488
487
486
486
485
486
486
485
485
485
485
486
486
486
487
487
488
488
489
491
491
492
491
492
492
494
494
498
499
500
498
497
495
494
493
493
493
493
491
489
487
485
482
481
483
484
487
490
491
491
491
490
489
489
490
490
491
492
492
492
491
490
490
488
488
484
485
485
491
500
514
535
562
592
628
665
704
741
766
779
776
750
710
658
600
542
489
441
404
379
366
363
367
374
383
390
396
401
403
407
412
418
427
438
451
464
473
484
489
493
493
493
493
494
495
498
500
502
505
503
505
502
504
504
506
506
507
506
506
505
504
504
505
508
510
510
512
512
512
513
514
515
516
517
517
518
517
518
516
515
517
518
520
523
524
524
523
524
523
523
525
527
530
532
534
537
539
541
544
544
548
549
553
554
556
556
556
555
555
555
556
560
562
562
564
561
560
557
555
554
554
556
559
565
566
571
572
573
574
573
569
570
566
565
562
559
555
552
550
549
544
542
537
533
529
527
520
518
513
512
509
507
505
502
500
494
493
489
487
487
486
484
484
482
480
477
475
473
473
473
472
471
471
470
470
467
467
466
469
469
473
474
475
474
473
473
472
473
475
476
478
479
479
479
477
477
477
478
480
483
485
487
487
487
486
486
485
487
489
492
492
494
494
494
492
492
491
494
494
497
498
498
496
494
493
490
490
489
491
490
491
490
490
489
487
486
485
486
488
492
491
494
492
493
492
492
491
492
493
494
497
494
495
492
492
493
491
493
493
494
495
493
493
491
491
490
492
491
494
493
493
495
493
494
494
494
498
499
501
502
502
502
502
502
502
503
504
503
502
502
502
502
502
503
503
504
505
506
505
505
503
502
501
501
502
503
505
506
506
505
503
501
499
498
497
498
502
493
496
498
500
501
493
495
498
495
498
501
500
501
500
498
498
497
498
499
500
500
500
500
502
506
516
533
556
586
623
665
710
753
785
810
813
797
766
716
654
590
527
470
421
387
367
360
364
374
385
395
401
405
407
410
414
419
427
438
450
464
475
485
492
496
498
500
500
499
498
496
496
496
497
497
499
501
503
507
510
513
517
520
521
521
519
516
514
513
513
514
515
516
518
520
521
523
523
523
523
523
524
525
528
530
532
535
537
537
537
534
532
528
526
524
524
524
526
529
534
538
543
547
551
554
556
556
556
556
559
558
561
562
566
568
571
573
573
573
571
569
565
563
561
559
558
558
556
555
554
554
556
561
568
576
583
587
587
584
579
573
568
565
562
560
557
554
550
544
540
534
528
523
520
516
513
508
506
501
497
492
488
485
483
481
480
477
476
474
471
470
469
467
466
465
464
463
463
463
464
466
467
465
464
459
456
452
451
454
458
465
473
477
481
478
474
468
464
461
461
465
470
477
482
484
486
484
482
481
480
480
480
482
482
483
483
482
481
479
477
475
475
476
475
474
471
468
467
468
473
479
488
495
500
501
498
493
489
484
482
479
480
481
483
485
482
482
478
477
474
475
475
477
477
478
479
476
477
476
477
478
479
479
479
478
478
477
477
477
476
476
477
475
473
469
466
465
465
469
475
482
489
494
496
497
495
492
491
491
493
494
499
499
500
499
497
495
495
492
492
491
492
493
493
491
492
490
490
489
490
490
490
490
491
491
490
492
493
493
494
494
493
491
489
487
488
489
491
492
493
493
491
485
482
478
477
479
485
496
510
529
548
569
595
624
658
693
725
754
766
763
741
704
652
595
537
479
434
397
373
363
364
371
381
391
397
402
404
407
409
413
418
425
431
441
453
466
480
492
500
504
505
503
501
499
497
498
498
500
503
503
505
503
503
501
500
500
501
506
508
512
513
515
515
517
518
521
521
523
523
523
523
520
519
520
520
519
521
521
523
523
523
523
525
526
529
530
530
530
530
527
526
524
524
524
528
533
541
548
556
561
564
565
566
562
561
557
556
555
555
555
555
555
556
557
559
562
562
562
562
561
560
560
560
562
562
562
562
560
557
555
552
551
549
548
546
543
540
537
535
533
532
531
530
529
527
524
520
516
510
506
503
501
500
500
500
499
497
494
490
486
484
483
482
481
480
478
475
472
468
465
463
463
464
465
466
467
467
468
469
470
473
478
482
485
488
488
488
487
487
487
488
489
491
491
491
490
488
487
486
486
487
489
491
492
494
494
494
494
493
492
491
490
490
491
492
492
492
491
489
487
483
480
478
478
482
486
491
497
501
503
504
502
499
495
492
489
487
488
489
491
493
494
494
493
492
491
489
488
487
488
488
488
487
487
486
485
486
487
490
493
495
496
496
495
494
494
494
495
496
497
498
498
496
494
491
488
485
482
479
476
475
476
479
483
487
493
497
501
504
507
508
508
506
504
501
499
498
498
497
499
498
498
497
496
494
495
494
495
495
495
497
495
495
495
493
494
497
503
513
527
545
569
595
624
655
685
712
730
735
723
696
655
606
555
505
461
424
397
383
379
382
389
397
401
407
410
414
416
422
427
433
440
447
458
466
479
489
500
506
509
510
509
509
507
506
506
508
509
509
509
507
506
505
505
507
509
510
513
515
515
515
515
516
514
516
516
517
520
519
520
518
519
519
519
519
520
523
524
523
524
523
523
524
525
528
529
531
533
535
537
537
538
539
541
542
544
546
546
546
545
544
545
546
548
551
553
555
554
555
554
554
555
556
558
561
559
561
558
556
553
553
553
554
557
560
562
561
558
554
550
547
546
546
548
549
549
547
543
537
532
527
525
520
520
517
516
513
510
508
506
503
503
501
499
498
497
491
488
483
481
478
478
478
478
480
479
478
475
473
471
471
469
468
468
467
466
465
464
465
465
468
469
472
473
473
473
473
468
470
468
471
472
475
477
478
478
476
475
473
474
477
479
479
484
484
486
486
486
485
486
485
487
488
489
491
493
491
491
490
490
488
489
487
487
486
486
486
486
487
491
492
493
494
494
493
492
490
488
486
488
491
494
498
501
501
500
497
493
489
485
484
481
482
482
485
486
488
490
492
493
494
493
491
490
487
482
481
479
482
486
492
498
501
501
498
492
487
483
482
484
484
489
490
494
494
494
495
495
496
498
499
501
501
499
497
497
497
494
496
492
492
490
489
489
490
493
496
500
499
502
499
497
496
490
489
486
486
485
487
490
498
510
528
549
581
617
656
697
736
766
785
787
768
731
681
622
563
503
452
406
373
353
344
346
354
365
377
386
392
396
398
401
406
414
426
442
460
477
491
501
505
506
504
501
499
498
500
503
506
509
510
510
510
509
508
508
510
513
516
518
519
520
521
521
524
525
527
528
528
527
526
525
526
527
530
532
534
537
538
537
537
535
535
535
538
540
543
545
546
546
546
547
549
550
552
553
555
557
558
559
559
560
561
562
563
565
567
567
566
565
563
563
564
566
569
572
573
575
576
577
576
575
574
573
575
576
577
577
576
573
571
567
565
564
562
561
560
559
557
554
550
547
543
540
538
537
533
530
528
525
524
523
520
517
514
510
506
501
496
491
487
484
483
482
482
481
480
478
476
474
472
472
471
471
470
470
469
468
468
468
468
468
468
469
469
469
470
470
472
473
473
474
473
471
471
469
470
472
474
476
478
479
480
479
479
477
477
477
478
479
481
484
487
489
490
490
488
486
485
483
482
482
481
480
480
479
479
479
479
480
481
483
484
485
485
483
480
478
476
476
477
480
482
483
484
485
485
484
486
484
485
485
486
487
487
487
487
487
488
490
492
496
497
498
498
499
499
500
501
503
504
505
505
504
503
503
502
503
505
507
508
507
506
503
500
496
494
494
495
497
500
502
504
506
504
504
503
504
503
505
505
507
506
507
506
505
503
504
503
503
504
504
504
504
503
503
505
509
517
529
545
565
590
620
654
692
727
758
777
783
772
740
696
638
584
529
480
441
410
393
386
389
395
404
411
417
422
424
427
430
433
438
444
451
461
473
486
500
510
516
519
518
516
512
509
507
507
508
509
510
510
510
510
510
512
514
516
520
520
520
518
516
517
514
514
513
513
515
518
521
524
529
526
528
526
526
523
525
524
524
524
525
527
529
533
537
540
540
541
538
538
537
537
538
542
543
548
549
551
550
549
548
546
547
549
553
557
560
562
562
562
561
561
560
561
562
563
564
565
566
567
568
567
569
568
567
566
564
561
560
559
558
557
556
554
552
547
544
540
537
531
530
526
525
523
520
518
516
514
512
510
505
505
504
503
502
500
497
494
491
488
487
486
487
487
488
487
486
484
482
479
478
478
479
481
482
482
484
482
483
483
485
487
488
488
488
487
487
485
487
489
491
495
497
498
497
495
493
492
492
491
496
496
500
501
503
503
502
501
500
500
502
504
507
508
507
507
505
504
503
503
503
503
502
502
501
501
500
501
502
504
506
509
509
509
507
506
504
503
503
505
507
510
510
510
510
507
505
503
503
504
505
506
505
505
503
504
504
505
506
508
509
510
510
510
510
510
514
517
521
524
526
526
524
523
518
515
515
516
518
519
523
523
521
519
517
516
515
514
514
513
513
512
510
510
510
509
510
513
517
520
523
525
524
523
519
516
515
515
517
519
520
521
521
520
520
523
529
540
557
578
603
631
661
690
718
739
752
752
737
708
668
623
577
533
493
462
437
420
410
408
410
416
425
433
441
449
458
467
477
487
498
507
514
520
524
528
530
532
533
534
534
532
531
530
530
530
531
532
532
531
530
530
531
533
535
538
541
543
545
545
546
545
545
546
546
547
548
549
548
547
545
544
544
545
546
548
549
550
549
549
548
548
549
550
551
553
555
556
557
558
559
558
559
562
565
570
575
580
582
583
582
582
581
582
583
585
586
588
588
587
587
586
586
588
591
591
594
593
595
594
594
595
596
599
601
602
603
601
598
597
593
591
588
586
586
586
585
583
579
575
570
567
564
561
559
556
553
549
546
545
543
541
541
540
540
539
537
534
531
528
526
524
523
523
521
521
518
517
515
515
516
517
519
519
520
519
518
517
516
516
517
518
520
523
524
525
524
523
523
523
523
524
526
526
526
525
523
521
521
521
523
523
525
527
528
528
527
526
526
524
525
526
528
530
532
532
533
531
530
528
529
530
531
532
532
531
530
529
528
527
527
527
527
527
527
526
526
525
526
528
530
532
535
534
534
531
530
526
525
525
525
524
527
526
526
525
525
526
523
526
527
530
532
533
532
532
528
526
524
525
528
534
535
540
540
541
539
538
537
535
534
533
531
530
529
529
527
528
528
528
528
526
524
523
521
523
521
523
525
526
527
528
527
526
524
523
520
520
520
521
523
523
523
523
521
520
519
519
520
525
533
545
562
582
610
639
674
709
748
766
784
784
768
735
688
633
574
527
480
444
416
401
392
393
398
404
413
421
430
436
443
450
456
468
476
489
500
510
518
523
524
523
521
519
517
517
519
520
520
524
523
523
523
521
520
521
523
525
525
527
527
527
524
524
523
523
523
528
530
534
537
537
537
535
534
535
537
535
537
535
535
535
535
535
537
537
537
538
540
542
543
544
545
545
546
547
549
551
553
556
558
560
562
564
566
568
571
572
574
575
576
577
578
580
583
587
589
592
593
593
592
590
590
590
591
592
594
596
596
594
593
591
591
591
590
590
588
587
583
579
574
570
565
562
558
554
551
546
542
538
534
532
530
528
526
525
523
520
518
515
513
509
507
504
500
497
494
491
488
487
487
487
489
491
493
494
494
492
489
487
485
484
484
484
486
487
488
488
489
489
489
488
487
489
490
491
492
493
494
493
493
493
494
497
498
500
500
501
501
500
500
500
500
502
505
507
508
510
509
509
507
505
503
502
501
501
500
500
500
500
501
503
504
504
504
503
502
500
499
498
498
498
498
498
498
498
498
499
501
502
502
501
501
501
500
499
499
498
497
496
496
496
497
497
496
495
494
493
493
494
497
499
501
504
507
507
506
504
503
501
501
501
501
501
499
500
488
490
496
505
513
513
520
524
518
515
510
505
504
504
505
508
509
510
510
508
504
500
496
493
489
487
484
484
483
484
485
487
489
490
491
491
491
488
484
479
471
464
455
448
444
445
454
469
495
531
574
624
667
724
766
798
815
818
804
779
737
672
606
539
478
425
383
360
349
350
358
370
380
389
395
399
403
407
413
421
435
449
466
483
496
508
514
515
513
509
506
505
505
507
510
510
513
512
510
510
510
512
516
519
525
527
530
529
528
526
525
523
523
520
519
518
517
517
518
520
524
527
530
530
530
529
527
526
527
529
533
537
542
545
548
550
551
553
553
554
554
556
558
558
559
558
560
559
563
567
572
577
583
585
586
584
581
579
575
575
574
579
585
592
599
606
612
615
618
618
619
618
616
612
607
604
597
596
592
594
594
595
593
593
589
585
580
573
568
562
558
551
549
546
546
545
545
545
545
545
539
537
529
524
518
515
508
508
507
508
508
509
508
508
505
505
501
499
497
496
495
494
494
493
492
491
491
491
490
490
490
490
489
488
487
485
485
486
488
490
493
493
492
489
486
482
483
482
485
489
492
495
496
495
493
491
487
486
484
484
481
479
475
471
466
463
462
464
470
478
484
493
498
502
503
502
500
500
500
501
501
501
501
502
499
499
497
496
494
494
492
491
490
490
488
488
487
488
490
488
491
491
491
493
493
497
498
501
503
501
500
496
493
487
484
483
482
482
486
490
497
504
510
516
517
519
516
513
509
505
502
502
501
501
504
506
509
510
510
510
508
506
504
505
505
506
507
508
507
506
503
502
499
497
495
492
490
488
489
493
500
510
520
528
531
530
524
515
506
499
497
500
505
510
516
519
517
513
506
500
495
492
493
496
500
503
504
502
500
496
492
489
490
497
510
532
560
594
631
668
703
733
757
774
781
781
768
743
705
652
590
524
463
409
371
351
346
353
365
378
390
398
404
409
412
416
423
430
440
452
465
478
490
499
505
508
509
507
505
503
501
500
500
501
504
507
510
513
514
515
515
516
515
514
514
515
514
514
513
513
513
514
516
516
517
518
517
516
515
516
517
520
524
527
530
532
532
532
533
535
538
540
543
544
545
544
543
542
542
543
545
547
550
552
554
555
556
557
558
561
563
566
569
571
571
571
569
569
569
567
568
567
568
568
569
568
567
565
565
565
566
567
567
567
565
563
558
555
552
552
553
552
551
549
546
541
538
534
530
526
523
516
509
496
486
476
467
464
465
473
481
490
492
492
489
481
472
465
458
455
455
455
455
456
456
454
453
453
452
451
452
452
452
452
451
450
451
453
454
455
456
455
454
452
450
450
453
455
460
463
467
469
469
469
470
470
472
474
476
478
478
475
472
468
465
464
465
467
471
475
477
477
477
475
473
471
471
473
475
477
479
481
479
480
478
478
477
476
476
476
475
474
471
468
466
466
467
469
474
479
485
490
492
492
490
484
478
473
469
470
475
483
494
504
510
514
513
509
504
499
494
490
488
489
490
492
494
495
497
495
495
493
493
491
491
490
489
491
491
492
491
491
491
491
489
490
489
490
489
489
490
495
500
506
512
517
520
519
517
515
510
508
505
505
504
506
507
506
506
504
504
503
504
501
502
499
498
493
492
487
487
486
487
491
493
497
498
500
500
496
496
492
492
489
491
490
490
490
489
487
486
487
492
500
514
535
561
594
634
675
715
750
777
793
794
781
747
697
630
556
482
415
364
331
321
325
340
357
370
378
382
383
386
391
398
410
422
436
448
462
473
481
487
490
491
490
489
488
487
488
490
493
493
497
497
498
498
495
496
494
495
495
495
495
495
495
495
495
497
499
501
500
501
500
499
498
497
496
496
499
499
503
505
508
513
515
515
519
517
519
519
520
520
521
523
525
523
526
526
529
532
534
537
537
538
539
539
541
543
544
547
549
550
551
552
554
555
556
559
561
563
565
566
563
564
560
561
558
559
558
560
560
560
559
558
555
555
555
552
553
552
552
549
545
541
538
533
529
524
520
519
518
517
517
516
514
510
507
503
499
495
491
488
485
482
479
477
475
474
473
473
472
470
468
467
467
468
469
469
470
469
468
467
465
465
467
469
472
475
478
481
481
481
480
478
476
473
473
474
476
481
486
490
494
498
500
500
500
499
499
498
496
494
492
492
491
497
489
492
495
497
499
489
490
493
489
491
493
493
494
495
493
492
492
492
493
493
494
495
495
496
495
495
495
495
497
499
501
503
503
502
500
498
495
493
493
494
495
496
497
496
496
497
497
498
499
502
503
505
506
507
507
506
505
505
505
506
508
509
512
514
516
517
517
518
518
519
519
520
519
518
517
516
516
517
520
521
523
523
519
517
513
510
508
508
508
510
512
513
512
510
506
505
503
504
505
507
509
510
510
510
509
509
509
510
513
515
518
520
523
528
537
550
569
592
621
654
687
716
739
753
756
743
718
677
627
575
519
470
429
400
386
386
393
405
415
422
423
424
422
422
424
430
438
448
459
470
479
489
497
504
509
513
517
520
520
523
520
523
520
521
521
523
524
527
527
526
527
525
524
524
524
526
526
527
528
528
529
529
529
530
531
533
535
537
537
535
535
534
535
537
537
541
543
545
546
547
546
546
546
545
547
547
549
551
550
551
551
550
549
549
551
555
557
561
564
565
566
565
564
564
564
566
568
569
569
570
571
571
571
571
571
571
572
572
572
569
568
566
563
562
561
562
561
562
560
560
559
556
554
551
548
546
543
537
534
529
527
524
523
521
520
517
516
512
508
505
501
497
496
494
494
494
494
493
493
490
488
485
483
483
484
484
487
488
490
488
489
486
486
485
484
483
482
481
481
480
480
482
483
485
488
490
491
491
491
491
492
493
495
496
497
498
497
496
495
495
494
496
496
497
497
497
496
495
493
492
491
491
490
491
493
494
493
494
493
493
493
493
494
494
495
494
494
493
492
491
491
492
490
491
490
489
485
484
482
484
486
492
495
498
498
498
497
493
494
494
496
496
498
498
497
495
495
494
495
497
500
501
504
503
504
502
501
499
499
497
498
498
499
501
501
499
500
498
498
499
501
501
502
500
498
493
490
488
486
486
487
488
490
490
490
489
488
487
487
488
489
490
491
492
492
491
490
489
490
488
491
492
495
497
500
504
513
525
543
565
592
625
656
690
715
737
748
750
735
709
672
622
564
507
452
407
373
356
351
358
370
381
393
400
405
410
413
418
425
434
445
457
470
482
490
495
498
499
498
497
497
497
497
498
499
501
503
506
508
510
510
509
508
507
506
505
504
505
507
509
513
515
517
517
517
516
515
515
516
517
519
519
520
521
523
523
523
523
523
523
523
520
518
516
515
516
516
518
520
523
524
527
531
534
537
538
538
539
539
538
538
540
544
548
553
559
564
568
570
569
567
565
564
564
565
567
569
569
568
565
562
560
558
557
557
557
557
557
556
555
553
550
548
546
545
543
541
538
534
527
520
514
510
508
507
507
505
501
497
491
486
481
479
478
478
479
479
479
477
475
472
470
468
467
467
468
469
469
469
468
465
464
462
461
460
460
461
461
460
460
459
459
460
462
465
467
469
470
470
470
470
471
472
475
480
483
486
487
488
486
486
484
485
486
486
489
488
488
487
486
487
485
486
485
486
484
481
479
475
474
473
474
476
480
483
484
484
483
482
483
486
489
494
498
501
501
499
496
491
487
484
483
483
484
486
486
487
487
488
488
491
491
493
493
493
492
491
491
492
493
494
496
497
497
498
497
497
497
496
496
497
497
497
496
495
493
491
489
487
487
487
487
490
489
491
488
487
485
484
483
485
486
486
486
485
484
482
480
481
481
483
485
487
488
489
490
490
490
491
491
491
491
491
490
490
494
502
514
534
558
589
623
660
695
727
752
770
775
770
753
719
673
614
549
483
423
377
349
339
341
353
366
378
383
385
382
380
380
386
398
417
440
463
483
496
501
502
495
491
487
488
491
498
506
512
516
520
520
520
518
515
510
503
500
493
490
487
487
488
488
488
488
481
477
472
474
482
492
510
527
540
549
553
551
547
542
537
534
533
533
533
533
533
533
532
533
533
534
534
535
534
534
532
532
532
534
535
540
543
546
548
551
554
553
556
557
560
562
565
564
565
563
562
561
562
564
566
565
566
564
563
562
561
561
565
567
571
573
573
570
568
564
557
554
550
548
546
545
542
538
534
528
521
515
510
507
501
498
494
489
482
475
467
459
455
453
458
465
475
485
493
497
495
490
482
476
471
471
473
476
480
482
483
479
476
472
468
464
462
460
459
460
460
460
462
461
464
464
466
468
468
470
469
471
472
474
475
476
478
475
475
473
473
471
471
470
471
470
471
471
471
472
471
471
474
476
480
485
489
490
491
488
489
486
486
484
484
484
480
479
477
477
476
477
477
476
474
473
470
468
467
467
466
467
468
469
471
472
472
472
473
473
473
474
475
475
475
476
476
477
478
479
481
481
482
481
480
478
477
475
473
472
471
472
473
475
476
476
475
474
473
473
474
475
477
478
478
478
478
478
478
477
476
475
475
476
477
478
480
482
483
485
486
486
486
485
485
485
485
486
485
483
478
471
464
459
459
468
485
514
550
593
638
681
721
757
777
791
794
786
766
731
681
608
545
474
410
364
338
333
342
363
378
393
403
409
410
411
412
414
421
430
441
454
466
478
487
491
495
495
495
494
493
493
493
493
496
499
503
507
510
514
515
515
513
510
510
509
508
509
510
510
512
512
510
510
510
512
512
514
516
517
516
516
515
515
515
517
518
521
524
526
526
527
527
527
527
528
528
530
532
534
535
537
538
540
543
543
550
550
553
553
554
554
556
558
560
563
565
566
568
568
567
568
567
568
570
572
574
576
576
576
574
572
570
569
569
570
570
571
571
569
567
565
562
560
559
558
556
552
547
541
535
529
525
519
515
509
506
502
501
500
501
502
502
502
499
496
492
488
487
488
490
493
496
498
497
496
493
490
486
485
484
485
485
487
488
489
488
488
487
486
487
485
487
487
489
490
491
490
490
486
484
482
483
488
495
504
514
518
520
518
514
510
507
506
506
507
509
509
510
510
510
509
509
510
510
510
510
509
508
506
505
506
506
507
505
505
503
503
502
502
502
503
503
503
503
503
503
504
501
503
501
503
502
503
503
505
504
507
506
507
509
513
517
517
519
516
516
513
510
508
506
503
501
500
499
501
503
504
506
506
507
508
509
510
510
510
510
509
508
507
507
507
507
506
505
502
501
499
499
499
500
500
500
501
499
499
498
498
496
497
497
497
497
495
496
499
508
520
539
565
591
626
659
692
719
739
751
751
735
713
671
622
563
501
445
393
368
357
357
369
382
394
402
405
406
409
410
418
426
436
447
458
468
477
485
491
496
499
501
502
500
500
498
499
498
499
500
503
503
505
505
505
503
503
502
502
503
504
507
510
512
514
515
514
512
509
507
506
506
510
514
519
525
529
532
530
531
529
528
527
527
528
529
530
532
534
537
541
545
546
549
548
548
547
546
547
549
549
553
552
554
554
555
556
554
555
556
557
559
560
561
561
564
564
565
566
566
566
564
563
561
559
557
557
558
558
560
560
560
559
560
555
554
549
547
545
542
541
538
535
531
527
523
519
516
515
512
510
507
503
500
497
494
491
489
487
485
483
480
477
475
472
470
467
465
464
464
464
466
468
470
473
474
474
473
471
468
466
463
461
461
461
464
469
476
481
486
489
489
488
485
482
480
480
481
482
483
484
485
486
486
486
487
489
490
491
493
494
493
493
492
490
490
489
488
487
485
483
479
474
470
466
464
463
466
471
479
488
498
505
509
510
509
506
501
496
492
489
487
488
490
494
496
498
498
496
494
492
490
489
490
491
494
496
498
499
500
500
499
498
496
494
494
494
492
490
489
488
487
487
487
490
492
493
494
493
492
490
488
487
487
487
487
488
487
486
486
485
485
487
489
491
492
493
493
491
488
487
487
487
488
489
490
491
490
488
486
484
486
492
503
521
544
572
605
642
675
709
735
755
763
762
747
719
675
620
556
492
435
388
358
345
344
354
366
378
387
394
399
404
410
415
423
432
443
454
465
474
481
486
488
489
488
488
488
490
493
497
503
507
508
508
505
502
498
496
494
496
498
501
502
504
506
506
506
505
504
505
506
507
510
510
512
512
510
510
509
508
508
